,ppg
0,60.2442
1,58.4127
2,58.4127
3,56.263737
4,56.263737
5,56.263737
6,54.139194
7,54.139194
8,52.185593
9,52.185593
10,52.185593
11,50.427353
12,50.427353
13,48.93773
14,48.93773
15,47.61905
16,47.61905
17,47.61905
18,46.39805
19,46.39805
20,43.858364
21,43.858364
22,43.858364
23,42.539684
24,42.539684
25,41.26984
26,41.26984
27,40.195362
28,40.195362
29,40.195362
30,39.53602
31,39.53602
32,39.41392
33,39.41392
34,39.41392
35,39.70696
36,39.70696
37,40.26862
38,40.26862
39,41.05006
40,41.05006
41,41.05006
42,41.880344
43,41.880344
44,42.661785
45,42.661785
46,42.661785
47,43.321125
48,43.321125
49,43.785103
50,43.785103
51,44.102566
52,44.102566
53,44.102566
54,44.273506
55,44.273506
56,44.371185
57,44.371185
58,44.371185
59,44.468864
60,44.468864
61,44.664227
62,44.664227
63,44.932846
64,44.932846
65,44.932846
66,45.225887
67,45.225887
68,45.518925
69,45.518925
70,45.518925
71,45.689865
72,45.689865
73,45.714287
74,45.714287
75,45.543346
76,45.543346
77,45.543346
78,45.201466
79,45.201466
80,44.810745
81,44.810745
82,44.810745
83,44.468864
84,44.468864
85,44.273506
86,44.273506
87,44.346764
88,44.346764
89,44.346764
90,44.639805
91,44.639805
92,45.103786
93,45.103786
94,45.103786
95,45.616608
96,45.616608
97,46.17827
98,46.17827
99,46.446888
100,46.446888
101,46.446888
102,46.61783
103,46.61783
104,47.081806
105,47.081806
106,47.081806
107,47.472527
108,47.472527
109,48.00977
110,48.00977
111,49.47497
112,49.47497
113,49.47497
114,50.32967
115,50.32967
116,51.11111
117,51.11111
118,51.11111
119,51.94139
120,51.94139
121,51.746033
122,51.746033
123,51.208794
124,51.208794
125,51.208794
126,49.865692
127,49.865692
128,48.66911
129,48.66911
130,48.66911
131,47.423687
132,47.423687
133,46.17827
134,46.17827
135,45.054947
136,45.054947
137,45.054947
138,44.102566
139,44.102566
140,43.296703
141,43.296703
142,43.296703
143,42.759464
144,42.759464
145,42.588524
146,42.588524
147,42.83272
148,42.83272
149,42.83272
150,43.418804
151,43.418804
152,44.151405
153,44.151405
154,44.151405
155,44.908424
156,44.908424
157,45.470085
158,45.470085
159,45.763126
160,45.763126
161,45.763126
162,45.836388
163,45.836388
164,45.714287
165,45.714287
166,45.714287
167,45.689865
168,45.689865
169,45.934067
170,45.934067
171,46.520145
172,46.520145
173,46.520145
174,47.545788
175,47.545788
176,48.815628
177,48.815628
178,48.815628
179,50.15873
180,50.15873
181,51.355312
182,51.355312
183,52.258854
184,52.258854
185,52.258854
186,52.844933
187,52.844933
188,53.260075
189,53.260075
190,53.260075
191,53.650795
192,53.650795
193,54.065933
194,54.065933
195,54.481075
196,54.481075
197,54.481075
198,54.896217
199,54.896217
200,55.213676
201,55.213676
202,55.213676
203,55.409035
204,55.409035
205,55.360195
206,55.360195
207,55.042736
208,55.042736
209,55.042736
210,54.505497
211,54.505497
212,53.724056
213,53.724056
214,53.724056
215,52.796093
216,52.796093
217,51.84371
218,51.84371
219,51.01343
220,51.01343
221,51.01343
222,50.476192
223,50.476192
224,50.35409
225,50.35409
226,50.35409
227,50.57387
228,50.57387
229,51.037853
230,51.037853
231,51.62393
232,51.62393
233,51.62393
234,52.161175
235,52.161175
236,52.576313
237,52.576313
238,52.576313
239,52.844933
240,52.844933
241,52.893772
242,52.893772
243,52.796093
244,52.796093
245,52.796093
246,52.600735
247,52.600735
248,52.356533
249,52.356533
250,52.356533
251,52.087914
252,52.087914
253,51.819294
254,51.819294
255,51.526253
256,51.526253
257,51.526253
258,51.23321
259,51.23321
260,50.94017
261,50.94017
262,50.94017
263,50.695972
264,50.695972
265,50.525032
266,50.525032
267,50.427353
268,50.427353
269,50.427353
270,50.40293
271,50.40293
272,50.427353
273,50.427353
274,50.427353
275,50.50061
276,50.50061
277,50.54945
278,50.54945
279,50.54945
280,50.54945
281,50.54945
282,50.50061
283,50.50061
284,50.427353
285,50.427353
286,50.427353
287,50.35409
288,50.35409
289,50.256413
290,50.256413
291,50.207573
292,50.207573
293,50.207573
294,50.23199
295,50.23199
296,50.32967
297,50.32967
298,50.32967
299,50.427353
300,50.427353
301,50.45177
302,50.45177
303,50.40293
304,50.40293
305,50.40293
306,50.256413
307,50.256413
308,49.98779
309,49.98779
310,49.98779
311,49.69475
312,49.69475
313,49.40171
314,49.40171
315,49.18193
316,49.18193
317,49.18193
318,49.08425
319,49.08425
320,49.13309
321,49.13309
322,49.13309
323,49.30403
324,49.30403
325,49.57265
326,49.57265
327,49.865692
328,49.865692
329,49.865692
330,50.10989
331,50.10989
332,50.305252
333,50.305252
334,50.305252
335,50.45177
336,50.45177
337,50.50061
338,50.50061
339,50.45177
340,50.45177
341,50.45177
342,50.35409
343,50.35409
344,50.256413
345,50.256413
346,50.256413
347,50.13431
348,50.13431
349,50.01221
350,50.01221
351,49.89011
352,49.89011
353,49.89011
354,49.81685
355,49.81685
356,49.76801
357,49.76801
358,49.76801
359,49.76801
360,49.76801
361,49.81685
362,49.81685
363,49.91453
364,49.91453
365,49.91453
366,50.036633
367,50.036633
368,50.18315
369,50.18315
370,50.18315
371,50.32967
372,50.32967
373,50.45177
374,50.45177
375,50.525032
376,50.525032
377,50.525032
378,50.525032
379,50.525032
380,50.45177
381,50.45177
382,50.45177
383,50.32967
384,50.32967
385,50.18315
386,50.18315
387,50.06105
388,50.06105
389,50.06105
390,49.96337
391,49.96337
392,49.89011
393,49.89011
394,49.89011
395,49.89011
396,49.89011
397,49.93895
398,49.93895
399,50.01221
400,50.01221
401,50.01221
402,50.06105
403,50.06105
404,
405,
406,
407,50.085472
408,50.085472
409,50.06105
410,50.06105
411,49.93895
412,49.93895
413,49.93895
414,49.79243
415,49.79243
416,49.62149
417,49.62149
418,49.62149
419,49.40171
420,49.40171
421,49.15751
422,49.15751
423,48.88889
424,48.88889
425,48.88889
426,48.595848
427,48.595848
428,48.35165
429,48.35165
430,48.35165
431,48.18071
432,48.18071
433,48.10745
434,48.10745
435,48.13187
436,48.13187
437,48.13187
438,48.15629
439,48.15629
440,48.05861
441,48.05861
442,48.05861
443,47.643467
444,47.643467
445,46.56899
446,46.56899
447,44.713066
448,44.713066
449,44.713066
450,42.271065
451,42.271065
452,39.82906
453,39.82906
454,39.82906
455,38.48596
456,38.48596
457,40.43956
458,40.43956
459,45.95849
460,45.95849
461,45.95849
462,55.45788
463,55.45788
464,70.40293
465,70.40293
466,70.40293
467,84.39561
468,84.39561
469,92.210014
470,92.210014
471,96.11722
472,96.11722
473,96.11722
474,98.070816
475,98.070816
476,99.04762
477,99.04762
478,99.04762
479,99.53602
480,99.53602
481,99.7558
482,99.7558
483,99.3895
484,99.3895
485,99.3895
486,98.779
487,98.779
488,97.97314
489,97.97314
490,97.97314
491,96.87424
492,96.87424
493,95.6044
494,95.6044
495,94.23688
496,94.23688
497,94.23688
498,92.82051
499,92.82051
500,91.37973
501,91.37973
502,91.37973
503,89.91453
504,89.91453
505,88.47375
506,88.47375
507,87.05739
508,87.05739
509,87.05739
510,85.592186
511,85.592186
512,84.05373
513,84.05373
514,84.05373
515,82.46642
516,82.46642
517,80.830284
518,80.830284
519,79.07204
520,79.07204
521,79.07204
522,77.191696
523,77.191696
524,75.21368
525,75.21368
526,75.21368
527,73.16239
528,73.16239
529,71.08669
530,71.08669
531,69.13309
532,69.13309
533,69.13309
534,67.350426
535,67.350426
536,65.76313
537,65.76313
538,65.76313
539,64.468864
540,64.468864
541,63.418804
542,63.418804
543,62.588524
544,62.588524
545,62.588524
546,61.855923
547,61.855923
548,61.147743
549,61.147743
550,61.147743
551,60.43956
552,60.43956
553,59.73138
554,59.73138
555,58.94994
556,58.94994
557,58.94994
558,58.0464
559,58.0464
560,56.923077
561,56.923077
562,56.923077
563,55.604397
564,55.604397
565,54.065933
566,54.065933
567,52.185593
568,52.185593
569,52.185593
570,49.89011
571,49.89011
572,47.22833
573,47.22833
574,47.22833
575,44.273506
576,44.273506
577,41.098904
578,41.098904
579,38.02198
580,38.02198
581,38.02198
582,35.189255
583,35.189255
584,32.796093
585,32.796093
586,32.796093
587,31.135532
588,31.135532
589,30.23199
590,30.23199
591,29.84127
592,29.84127
593,29.84127
594,29.71917
595,29.71917
596,29.74359
597,29.74359
598,29.74359
599,29.74359
600,29.74359
601,29.69475
602,29.69475
603,29.64591
604,29.64591
605,29.64591
606,29.67033
607,29.67033
608,29.84127
609,29.84127
610,29.84127
611,30.08547
612,30.08547
613,30.402931
614,30.402931
615,30.793652
616,30.793652
617,30.793652
618,31.208792
619,31.208792
620,31.623932
621,31.623932
622,31.623932
623,32.014652
624,32.014652
625,32.33211
626,32.33211
627,32.50305
628,32.50305
629,32.50305
630,32.527473
631,32.527473
632,32.380955
633,32.380955
634,32.380955
635,32.11233
636,32.11233
637,31.819292
638,31.819292
639,31.526253
640,31.526253
641,31.526253
642,31.257631
643,31.257631
644,31.062271
645,31.062271
646,31.062271
647,30.964592
648,30.964592
649,30.940172
650,30.940172
651,31.08669
652,31.08669
653,31.08669
654,31.550673
655,31.550673
656,32.600735
657,32.600735
658,32.600735
659,34.236874
660,34.236874
661,36.336998
662,36.336998
663,38.87668
664,38.87668
665,38.87668
666,41.367523
667,41.367523
668,43.565323
669,43.565323
670,43.565323
671,45.152626
672,45.152626
673,45.665447
674,45.665447
675,44.810745
676,44.810745
677,44.810745
678,42.857143
679,42.857143
680,40.04884
681,40.04884
682,40.04884
683,41.294262
684,41.294262
685,45.665447
686,45.665447
687,47.83883
688,47.83883
689,47.83883
690,48.93773
691,48.93773
692,49.47497
693,49.47497
694,49.47497
695,49.74359
696,49.74359
697,49.89011
698,49.89011
699,49.96337
700,49.96337
701,49.96337
702,49.98779
703,49.98779
704,50.01221
705,50.01221
706,50.01221
707,50.01221
708,50.01221
709,50.01221
710,50.01221
711,50.01221
712,50.01221
713,50.01221
714,50.01221
715,50.01221
716,50.01221
717,50.01221
718,50.01221
719,50.01221
720,50.01221
721,50.01221
722,50.01221
723,50.01221
724,50.01221
725,50.01221
726,50.01221
727,50.01221
728,50.01221
729,50.01221
730,50.01221
731,50.01221
732,50.01221
733,50.01221
734,50.01221
735,50.01221
736,50.01221
737,50.01221
738,50.01221
739,50.01221
740,50.01221
741,50.01221
742,50.01221
743,50.01221
744,50.01221
745,50.01221
746,50.01221
747,50.01221
748,50.01221
749,50.01221
750,50.01221
751,50.01221
752,50.01221
753,50.01221
754,50.01221
755,50.01221
756,50.01221
757,50.01221
758,50.01221
759,50.01221
760,50.01221
761,50.01221
762,50.01221
763,50.01221
764,50.01221
765,50.01221
766,50.01221
767,50.01221
768,50.01221
769,50.01221
770,50.01221
771,48.62027
772,48.62027
773,48.62027
774,47.326008
775,47.326008
776,48.253967
777,48.253967
778,48.253967
779,50.18315
780,50.18315
781,52.11233
782,52.11233
783,53.675213
784,53.675213
785,53.675213
786,54.822956
787,54.822956
788,55.433456
789,55.433456
790,55.433456
791,55.653236
792,55.653236
793,55.702076
794,55.702076
795,55.677658
796,55.677658
797,55.677658
798,55.628815
799,55.628815
800,55.579975
801,55.579975
802,55.579975
803,55.531136
804,55.531136
805,55.45788
806,55.45788
807,55.335777
808,55.335777
809,55.335777
810,55.140415
811,55.140415
812,54.920635
813,54.920635
814,54.920635
815,54.725277
816,54.725277
817,54.578754
818,54.578754
819,54.603176
820,54.603176
821,54.603176
822,54.798534
823,54.798534
824,55.189255
825,55.189255
826,55.189255
827,55.8486
828,55.8486
829,56.703297
830,56.703297
831,57.63126
832,57.63126
833,57.63126
834,58.534798
835,58.534798
836,59.29182
837,59.29182
838,59.29182
839,59.80464
840,59.80464
841,60.1221
842,60.1221
843,60.21978
844,60.21978
845,60.21978
846,60.1221
847,60.1221
848,59.8779
849,59.8779
850,59.8779
851,59.5116
852,59.5116
853,59.07204
854,59.07204
855,58.534798
856,58.534798
857,58.534798
858,57.89988
859,57.89988
860,57.216118
861,57.216118
862,57.216118
863,56.50794
864,56.50794
865,
866,
867,55.775337
868,55.775337
869,55.775337
870,55.115997
871,55.115997
872,54.554337
873,54.554337
874,54.554337
875,54.041515
876,54.041515
877,53.626373
878,53.626373
879,53.260075
880,53.260075
881,53.260075
882,52.942616
883,52.942616
884,52.649574
885,52.649574
886,52.649574
887,52.380955
888,52.380955
889,52.136753
890,52.136753
891,51.916973
892,51.916973
893,51.916973
894,51.72161
895,51.72161
896,51.575092
897,51.575092
898,51.575092
899,51.45299
900,51.45299
901,51.355312
902,51.355312
903,51.257633
904,51.257633
905,51.257633
906,51.15995
907,51.15995
908,51.086693
909,51.086693
910,51.086693
911,51.01343
912,51.01343
913,50.94017
914,50.94017
915,50.866913
916,50.866913
917,50.866913
918,50.818073
919,50.818073
920,50.744812
921,50.744812
922,50.744812
923,50.647133
924,50.647133
925,50.525032
926,50.525032
927,50.40293
928,50.40293
929,50.40293
930,50.256413
931,50.256413
932,50.085472
933,50.085472
934,50.085472
935,49.93895
936,49.93895
937,49.81685
938,49.81685
939,49.67033
940,49.67033
941,49.67033
942,49.47497
943,49.47497
944,49.40171
945,49.40171
946,49.40171
947,49.40171
948,49.40171
949,49.45055
950,49.45055
951,49.52381
952,49.52381
953,49.52381
954,49.57265
955,49.57265
956,49.57265
957,49.57265
958,49.57265
959,49.42613
960,49.42613
961,49.47497
962,49.47497
963,49.74359
964,49.74359
965,49.74359
966,49.89011
967,49.89011
968,49.96337
969,49.96337
970,49.96337
971,49.98779
972,49.98779
973,50.01221
974,50.01221
975,50.01221
976,50.01221
977,50.01221
978,50.01221
979,50.01221
980,50.01221
981,50.01221
982,50.01221
983,50.01221
984,50.01221
985,50.01221
986,50.01221
987,50.01221
988,50.01221
989,50.01221
990,50.01221
991,50.01221
992,50.01221
993,50.01221
994,50.01221
995,50.01221
996,50.01221
997,50.01221
998,50.01221
999,50.01221
1000,50.01221
1001,50.01221
1002,50.01221
1003,50.01221
1004,50.01221
1005,50.01221
1006,50.01221
1007,50.01221
1008,50.01221
1009,50.01221
1010,50.01221
1011,50.01221
1012,50.01221
1013,50.01221
1014,50.01221
1015,50.01221
1016,50.01221
1017,50.01221
1018,50.01221
1019,50.01221
1020,50.01221
1021,50.01221
1022,50.01221
1023,50.01221
1024,50.01221
1025,50.01221
1026,50.01221
1027,50.01221
1028,50.01221
1029,50.01221
1030,50.01221
1031,50.01221
1032,50.01221
1033,50.01221
1034,50.01221
1035,50.01221
1036,50.01221
1037,50.01221
1038,50.01221
1039,50.01221
1040,50.01221
1041,50.01221
1042,50.01221
1043,50.01221
1044,50.01221
1045,50.01221
1046,50.01221
1047,50.01221
1048,50.01221
1049,50.01221
1050,50.01221
1051,50.01221
1052,50.01221
1053,50.01221
1054,50.01221
1055,50.01221
1056,50.01221
1057,50.01221
1058,50.01221
1059,50.01221
1060,50.01221
1061,50.01221
1062,50.01221
1063,50.01221
1064,50.01221
1065,50.01221
1066,50.01221
1067,50.01221
1068,50.01221
1069,50.01221
1070,50.01221
1071,50.01221
1072,50.01221
1073,50.01221
1074,50.01221
1075,50.01221
1076,50.01221
1077,50.01221
1078,50.01221
1079,50.01221
1080,50.01221
1081,50.01221
1082,50.01221
1083,50.01221
1084,50.01221
1085,50.01221
1086,50.01221
1087,50.01221
1088,50.01221
1089,50.01221
1090,50.01221
1091,50.01221
1092,50.01221
1093,50.01221
1094,50.01221
1095,50.01221
1096,50.01221
1097,50.01221
1098,50.01221
1099,50.01221
1100,50.01221
1101,50.01221
1102,50.01221
1103,50.01221
1104,50.01221
1105,50.01221
1106,50.01221
1107,50.01221
1108,50.01221
1109,50.01221
1110,50.01221
1111,50.01221
1112,50.01221
1113,50.01221
1114,50.01221
1115,50.01221
1116,50.01221
1117,50.01221
1118,50.01221
1119,50.01221
1120,50.01221
1121,50.01221
1122,50.01221
1123,50.01221
1124,50.01221
1125,50.01221
1126,50.01221
1127,49.69475
1128,49.69475
1129,49.05983
1130,49.05983
1131,48.44933
1132,48.44933
1133,48.44933
1134,47.93651
1135,47.93651
1136,47.57021
1137,47.57021
1138,47.57021
1139,47.30159
1140,47.30159
1141,47.106228
1142,47.106228
1143,46.91087
1144,46.91087
1145,46.91087
1146,46.715508
1147,46.715508
1148,46.495728
1149,46.495728
1150,46.495728
1151,46.227108
1152,46.227108
1153,45.982906
1154,45.982906
1155,45.763126
1156,45.763126
1157,45.763126
1158,45.543346
1159,45.543346
1160,45.396828
1161,45.396828
1162,45.396828
1163,45.299145
1164,45.299145
1165,45.250305
1166,45.250305
1167,45.250305
1168,45.250305
1169,45.250305
1170,45.225887
1171,45.225887
1172,45.103786
1173,45.103786
1174,45.103786
1175,44.835167
1176,44.835167
1177,44.420025
1178,44.420025
1179,43.882786
1180,43.882786
1181,43.882786
1182,43.174603
1183,43.174603
1184,42.39316
1185,42.39316
1186,42.39316
1187,41.61172
1188,41.61172
1189,40.87912
1190,40.87912
1191,40.2442
1192,40.2442
1193,40.2442
1194,39.73138
1195,39.73138
1196,39.34066
1197,39.34066
1198,39.34066
1199,39.0232
1200,39.0232
1201,41.66056
1202,41.66056
1203,45.836388
1204,45.836388
1205,45.836388
1206,47.93651
1207,47.93651
1208,48.98657
1209,48.98657
1210,48.98657
1211,49.49939
1212,49.49939
1213,49.76801
1214,49.76801
1215,49.89011
1216,49.89011
1217,49.89011
1218,49.96337
1219,49.96337
1220,49.98779
1221,49.98779
1222,49.98779
1223,50.01221
1224,50.01221
1225,50.01221
1226,50.01221
1227,50.01221
1228,50.01221
1229,50.01221
1230,50.01221
1231,50.01221
1232,50.01221
1233,50.01221
1234,50.01221
1235,50.01221
1236,50.01221
1237,50.01221
1238,50.01221
1239,50.01221
1240,50.01221
1241,50.01221
1242,50.01221
1243,50.01221
1244,50.01221
1245,50.01221
1246,50.01221
1247,50.01221
1248,50.01221
1249,
1250,
1251,50.01221
1252,50.01221
1253,50.01221
1254,50.01221
1255,50.01221
1256,50.01221
1257,50.01221
1258,50.01221
1259,50.01221
1260,50.01221
1261,50.01221
1262,50.01221
1263,50.01221
1264,50.01221
1265,50.01221
1266,50.01221
1267,50.01221
1268,50.01221
1269,50.01221
1270,50.01221
1271,50.01221
1272,50.01221
1273,50.01221
1274,50.01221
1275,50.01221
1276,50.01221
1277,50.01221
1278,50.01221
1279,50.01221
1280,50.01221
1281,50.01221
1282,50.01221
1283,50.01221
1284,50.01221
1285,50.01221
1286,50.01221
1287,50.01221
1288,50.01221
1289,50.01221
1290,50.01221
1291,50.01221
1292,50.01221
1293,50.01221
1294,50.01221
1295,50.01221
1296,50.01221
1297,50.01221
1298,50.01221
1299,50.01221
1300,50.01221
1301,50.01221
1302,50.01221
1303,50.01221
1304,50.01221
1305,50.01221
1306,50.01221
1307,50.01221
1308,50.01221
1309,50.01221
1310,50.01221
1311,50.01221
1312,50.01221
1313,50.01221
1314,50.01221
1315,50.01221
1316,50.01221
1317,50.01221
1318,50.01221
1319,50.01221
1320,50.01221
1321,50.01221
1322,50.01221
1323,50.01221
1324,50.01221
1325,50.01221
1326,50.01221
1327,50.01221
1328,50.01221
1329,50.01221
1330,50.01221
1331,50.01221
1332,50.01221
1333,50.01221
1334,50.01221
1335,50.01221
1336,50.01221
1337,50.01221
1338,50.01221
1339,50.01221
1340,50.01221
1341,50.01221
1342,50.01221
1343,50.01221
1344,50.01221
1345,50.01221
1346,50.01221
1347,50.01221
1348,50.01221
1349,50.01221
1350,50.01221
1351,50.01221
1352,50.01221
1353,50.01221
1354,50.01221
1355,50.01221
1356,50.01221
1357,50.01221
1358,50.01221
1359,50.01221
1360,50.01221
1361,50.01221
1362,50.01221
1363,50.01221
1364,50.01221
1365,50.01221
1366,50.01221
1367,50.01221
1368,50.01221
1369,50.01221
1370,50.01221
1371,50.01221
1372,50.01221
1373,50.01221
1374,50.01221
1375,50.01221
1376,50.01221
1377,50.01221
1378,50.01221
1379,50.01221
1380,50.01221
1381,50.01221
1382,50.01221
1383,50.01221
1384,50.01221
1385,50.01221
1386,50.01221
1387,50.01221
1388,50.01221
1389,50.01221
1390,50.01221
1391,50.01221
1392,50.01221
1393,50.01221
1394,50.01221
1395,50.01221
1396,50.01221
1397,50.01221
1398,50.01221
1399,50.01221
1400,50.01221
1401,50.01221
1402,50.01221
1403,50.01221
1404,50.01221
1405,50.01221
1406,50.01221
1407,50.01221
1408,50.01221
1409,50.01221
1410,50.01221
1411,50.01221
1412,50.01221
1413,50.01221
1414,50.01221
1415,50.01221
1416,50.01221
1417,50.01221
1418,50.01221
1419,50.01221
1420,50.01221
1421,50.01221
1422,50.01221
1423,50.01221
1424,50.01221
1425,50.01221
1426,50.01221
1427,50.01221
1428,50.01221
1429,50.01221
1430,50.01221
1431,50.01221
1432,50.01221
1433,50.01221
1434,50.01221
1435,50.01221
1436,50.01221
1437,50.01221
1438,50.01221
1439,50.01221
1440,50.01221
1441,50.01221
1442,50.01221
1443,50.01221
1444,50.01221
1445,50.01221
1446,50.01221
1447,50.01221
1448,50.01221
1449,50.01221
1450,50.01221
1451,50.01221
1452,50.01221
1453,50.01221
1454,50.01221
1455,50.01221
1456,50.01221
1457,50.01221
1458,50.01221
1459,50.01221
1460,50.01221
1461,50.01221
1462,50.01221
1463,50.01221
1464,50.01221
1465,50.01221
1466,50.01221
1467,50.01221
1468,50.01221
1469,50.01221
1470,50.01221
1471,50.01221
1472,50.01221
1473,50.01221
1474,50.01221
1475,50.01221
1476,50.01221
1477,50.01221
1478,50.01221
1479,50.01221
1480,50.01221
1481,50.01221
1482,50.01221
1483,50.01221
1484,50.01221
1485,50.01221
1486,50.01221
1487,50.01221
1488,50.01221
1489,50.01221
1490,50.01221
1491,49.96337
1492,49.96337
1493,49.96337
1494,49.96337
1495,49.96337
1496,50.15873
1497,50.15873
1498,50.15873
1499,50.427353
1500,50.427353
1501,50.57387
1502,50.57387
1503,50.57387
1504,50.57387
1505,50.57387
1506,50.37851
1507,50.37851
1508,49.865692
1509,49.865692
1510,49.865692
1511,49.035408
1512,49.035408
1513,48.00977
1514,48.00977
1515,46.91087
1516,46.91087
1517,46.91087
1518,45.836388
1519,45.836388
1520,44.859585
1521,44.859585
1522,44.859585
1523,43.980465
1524,43.980465
1525,43.247864
1526,43.247864
1527,42.710625
1528,42.710625
1529,42.710625
1530,42.39316
1531,42.39316
1532,42.295483
1533,42.295483
1534,42.295483
1535,42.442
1536,42.442
1537,42.930405
1538,42.930405
1539,43.858364
1540,43.858364
1541,43.858364
1542,45.152626
1543,45.152626
1544,46.715508
1545,46.715508
1546,46.715508
1547,48.47375
1548,48.47375
1549,50.256413
1550,50.256413
1551,51.94139
1552,51.94139
1553,51.94139
1554,53.431015
1555,53.431015
1556,54.554337
1557,54.554337
1558,54.554337
1559,55.311356
1560,55.311356
1561,55.799755
1562,55.799755
1563,56.06838
1564,56.06838
1565,56.06838
1566,56.141636
1567,56.141636
1568,56.141636
1569,56.141636
1570,56.141636
1571,56.06838
1572,56.06838
1573,55.897438
1574,55.897438
1575,55.628815
1576,55.628815
1577,55.628815
1578,55.286938
1579,55.286938
1580,54.969475
1581,54.969475
1582,54.969475
1583,54.749695
1584,54.749695
1585,53.504276
1586,53.504276
1587,51.770454
1588,51.770454
1589,51.770454
1590,50.89133
1591,50.89133
1592,50.45177
1593,50.45177
1594,50.45177
1595,50.23199
1596,50.23199
1597,50.13431
1598,50.13431
1599,50.085472
1600,50.085472
1601,50.085472
1602,50.06105
1603,50.06105
1604,50.036633
1605,50.036633
1606,50.036633
1607,50.036633
1608,50.036633
1609,50.036633
1610,50.036633
1611,50.036633
1612,50.036633
1613,50.036633
1614,50.036633
1615,50.036633
1616,50.036633
1617,50.036633
1618,50.036633
1619,50.036633
1620,50.036633
1621,50.036633
1622,50.036633
1623,50.036633
1624,50.036633
1625,50.036633
1626,50.036633
1627,50.036633
1628,50.036633
1629,50.036633
1630,50.036633
1631,50.036633
1632,50.036633
1633,50.036633
1634,50.036633
1635,50.036633
1636,50.036633
1637,50.036633
1638,50.036633
1639,50.036633
1640,50.036633
1641,50.036633
1642,50.036633
1643,50.036633
1644,50.036633
1645,50.036633
1646,50.036633
1647,50.036633
1648,50.036633
1649,50.036633
1650,50.036633
1651,50.036633
1652,50.036633
1653,50.036633
1654,50.036633
1655,50.036633
1656,50.036633
1657,50.036633
1658,50.036633
1659,50.036633
1660,50.036633
1661,50.036633
1662,50.036633
1663,50.036633
1664,50.036633
1665,50.036633
1666,50.036633
1667,50.036633
1668,50.036633
1669,50.036633
1670,50.036633
1671,50.036633
1672,50.036633
1673,50.036633
1674,50.036633
1675,50.036633
1676,50.036633
1677,50.036633
1678,50.036633
1679,50.036633
1680,50.036633
1681,50.036633
1682,50.036633
1683,50.036633
1684,50.036633
1685,50.036633
1686,50.036633
1687,50.036633
1688,50.036633
1689,50.036633
1690,50.036633
1691,50.036633
1692,50.036633
1693,50.036633
1694,50.036633
1695,50.036633
1696,50.036633
1697,50.036633
1698,50.036633
1699,50.036633
1700,50.036633
1701,50.036633
1702,50.036633
1703,50.036633
1704,50.036633
1705,50.036633
1706,50.036633
1707,50.036633
1708,50.036633
1709,50.036633
1710,
1711,
1712,50.036633
1713,50.036633
1714,50.036633
1715,50.036633
1716,50.036633
1717,50.036633
1718,50.036633
1719,50.036633
1720,50.036633
1721,50.036633
1722,50.036633
1723,50.036633
1724,50.036633
1725,50.036633
1726,50.036633
1727,50.036633
1728,50.036633
1729,50.036633
1730,50.036633
1731,50.036633
1732,50.036633
1733,50.036633
1734,50.036633
1735,50.036633
1736,50.036633
1737,50.036633
1738,50.036633
1739,50.036633
1740,50.036633
1741,50.036633
1742,50.036633
1743,50.036633
1744,50.036633
1745,50.036633
1746,50.036633
1747,50.036633
1748,50.036633
1749,50.036633
1750,50.036633
1751,50.036633
1752,50.036633
1753,49.89011
1754,49.89011
1755,49.67033
1756,49.67033
1757,49.67033
1758,49.52381
1759,49.52381
1760,49.42613
1761,49.42613
1762,49.42613
1763,49.37729
1764,49.37729
1765,49.32845
1766,49.32845
1767,49.27961
1768,49.27961
1769,49.27961
1770,49.25519
1771,49.25519
1772,49.25519
1773,49.25519
1774,49.25519
1775,49.27961
1776,49.27961
1777,49.30403
1778,49.30403
1779,49.32845
1780,49.32845
1781,49.32845
1782,49.32845
1783,49.32845
1784,49.32845
1785,49.32845
1786,49.32845
1787,49.30403
1788,49.30403
1789,49.25519
1790,49.25519
1791,49.20635
1792,49.20635
1793,49.20635
1794,49.18193
1795,49.18193
1796,49.15751
1797,49.15751
1798,49.15751
1799,49.15751
1800,49.15751
1801,49.15751
1802,49.15751
1803,49.18193
1804,49.18193
1805,49.18193
1806,49.20635
1807,49.20635
1808,49.25519
1809,49.25519
1810,49.25519
1811,49.30403
1812,49.30403
1813,49.32845
1814,49.32845
1815,49.49939
1816,49.49939
1817,49.49939
1818,49.76801
1819,49.76801
1820,49.89011
1821,49.89011
1822,49.89011
1823,49.96337
1824,49.96337
1825,49.98779
1826,49.98779
1827,50.01221
1828,50.01221
1829,50.01221
1830,50.01221
1831,50.01221
1832,50.01221
1833,50.01221
1834,50.01221
1835,50.01221
1836,50.01221
1837,50.01221
1838,50.01221
1839,50.01221
1840,50.01221
1841,50.01221
1842,50.01221
1843,50.01221
1844,50.01221
1845,50.01221
1846,50.01221
1847,50.01221
1848,50.01221
1849,50.01221
1850,50.01221
1851,50.01221
1852,50.01221
1853,50.01221
1854,50.01221
1855,50.01221
1856,50.01221
1857,50.01221
1858,50.01221
1859,50.01221
1860,50.01221
1861,50.01221
1862,50.01221
1863,50.01221
1864,50.01221
1865,50.01221
1866,50.01221
1867,50.01221
1868,50.01221
1869,50.01221
1870,50.01221
1871,50.01221
1872,50.01221
1873,50.01221
1874,50.01221
1875,50.01221
1876,50.01221
1877,50.01221
1878,50.01221
1879,50.01221
1880,50.01221
1881,50.01221
1882,50.01221
1883,50.01221
1884,50.01221
1885,50.01221
1886,50.01221
1887,50.01221
1888,50.01221
1889,50.01221
1890,50.01221
1891,50.01221
1892,50.01221
1893,50.01221
1894,50.01221
1895,50.01221
1896,50.01221
1897,50.01221
1898,50.01221
1899,50.01221
1900,50.01221
1901,50.01221
1902,50.01221
1903,50.01221
1904,49.865692
1905,49.865692
1906,49.865692
1907,49.62149
1908,49.62149
1909,49.47497
1910,49.47497
1911,49.37729
1912,49.37729
1913,49.37729
1914,49.30403
1915,49.30403
1916,49.27961
1917,49.27961
1918,49.27961
1919,49.23077
1920,49.23077
1921,49.18193
1922,49.18193
1923,49.13309
1924,49.13309
1925,49.13309
1926,49.08425
1927,49.08425
1928,49.05983
1929,49.05983
1930,49.05983
1931,49.035408
1932,49.035408
1933,48.98657
1934,48.98657
1935,48.96215
1936,48.96215
1937,48.96215
1938,48.96215
1939,48.96215
1940,48.96215
1941,48.96215
1942,48.96215
1943,48.96215
1944,48.96215
1945,48.96215
1946,48.96215
1947,48.96215
1948,48.96215
1949,48.96215
1950,48.96215
1951,48.96215
1952,48.96215
1953,48.96215
1954,48.96215
1955,48.96215
1956,48.96215
1957,48.96215
1958,48.96215
1959,48.96215
1960,48.96215
1961,48.96215
1962,48.93773
1963,48.93773
1964,48.88889
1965,48.88889
1966,48.88889
1967,48.86447
1968,48.86447
1969,48.86447
1970,48.86447
1971,48.86447
1972,48.86447
1973,48.86447
1974,48.86447
1975,48.86447
1976,48.86447
1977,48.86447
1978,48.86447
1979,48.86447
1980,48.86447
1981,48.86447
1982,48.86447
1983,48.86447
1984,48.86447
1985,48.86447
1986,48.86447
1987,48.86447
1988,48.88889
1989,48.88889
1990,48.88889
1991,48.91331
1992,48.91331
1993,48.93773
1994,48.93773
1995,48.93773
1996,48.93773
1997,48.93773
1998,48.93773
1999,48.93773
2000,48.96215
2001,48.96215
2002,48.96215
2003,49.01099
2004,49.01099
2005,49.035408
2006,49.035408
2007,49.035408
2008,49.035408
2009,49.035408
2010,49.035408
2011,49.035408
2012,49.035408
2013,49.035408
2014,49.035408
2015,49.01099
2016,49.01099
2017,48.98657
2018,48.98657
2019,48.96215
2020,48.96215
2021,48.96215
2022,48.96215
2023,48.96215
2024,48.93773
2025,48.93773
2026,48.93773
2027,48.88889
2028,48.88889
2029,48.86447
2030,48.86447
2031,48.84005
2032,48.84005
2033,48.84005
2034,48.79121
2035,48.79121
2036,48.76679
2037,48.76679
2038,48.76679
2039,48.76679
2040,48.76679
2041,48.74237
2042,48.74237
2043,48.69353
2044,48.69353
2045,48.69353
2046,48.66911
2047,48.66911
2048,48.644688
2049,48.644688
2050,48.644688
2051,48.595848
2052,48.595848
2053,48.57143
2054,48.57143
2055,48.54701
2056,48.54701
2057,48.54701
2058,48.49817
2059,48.49817
2060,48.47375
2061,48.47375
2062,48.47375
2063,48.47375
2064,48.47375
2065,48.47375
2066,48.47375
2067,48.49817
2068,48.49817
2069,48.49817
2070,48.52259
2071,48.52259
2072,48.54701
2073,48.54701
2074,48.54701
2075,48.54701
2076,48.54701
2077,48.57143
2078,48.57143
2079,48.62027
2080,48.62027
2081,48.62027
2082,48.644688
2083,48.644688
2084,48.644688
2085,48.644688
2086,48.644688
2087,48.644688
2088,48.644688
2089,48.66911
2090,48.66911
2091,48.71795
2092,48.71795
2093,48.71795
2094,48.74237
2095,48.74237
2096,48.74237
2097,48.74237
2098,48.74237
2099,48.76679
2100,48.76679
2101,48.815628
2102,48.815628
2103,48.84005
2104,48.84005
2105,48.84005
2106,48.84005
2107,48.84005
2108,48.84005
2109,48.84005
2110,48.84005
2111,48.84005
2112,48.84005
2113,48.84005
2114,48.84005
2115,48.84005
2116,48.84005
2117,48.84005
2118,48.815628
2119,48.815628
2120,48.79121
2121,48.79121
2122,48.79121
2123,48.76679
2124,48.76679
2125,48.76679
2126,48.76679
2127,48.76679
2128,48.76679
2129,48.76679
2130,48.76679
2131,48.76679
2132,48.74237
2133,48.74237
2134,48.74237
2135,48.69353
2136,48.69353
2137,48.66911
2138,48.66911
2139,48.66911
2140,48.66911
2141,48.66911
2142,48.66911
2143,48.66911
2144,48.66911
2145,48.66911
2146,48.66911
2147,48.644688
2148,48.644688
2149,48.595848
2150,48.595848
2151,48.595848
2152,48.595848
2153,48.595848
2154,48.62027
2155,48.62027
2156,48.644688
2157,48.644688
2158,48.644688
2159,48.644688
2160,48.644688
2161,48.644688
2162,48.644688
2163,48.644688
2164,48.644688
2165,48.644688
2166,48.644688
2167,48.644688
2168,48.644688
2169,48.644688
2170,48.644688
2171,
2172,
2173,48.644688
2174,48.644688
2175,48.66911
2176,48.66911
2177,48.66911
2178,48.71795
2179,48.71795
2180,48.74237
2181,48.74237
2182,48.74237
2183,48.76679
2184,48.76679
2185,48.815628
2186,48.815628
2187,48.84005
2188,48.84005
2189,48.84005
2190,48.84005
2191,48.84005
2192,48.84005
2193,48.84005
2194,48.84005
2195,48.86447
2196,48.86447
2197,48.91331
2198,48.91331
2199,48.93773
2200,48.93773
2201,48.93773
2202,48.93773
2203,48.93773
2204,48.93773
2205,48.93773
2206,48.93773
2207,48.96215
2208,48.96215
2209,49.01099
2210,49.01099
2211,49.035408
2212,49.035408
2213,49.035408
2214,49.035408
2215,49.035408
2216,49.035408
2217,49.035408
2218,49.035408
2219,49.035408
2220,49.035408
2221,49.035408
2222,49.035408
2223,49.035408
2224,49.035408
2225,49.035408
2226,49.035408
2227,49.035408
2228,49.035408
2229,49.035408
2230,49.035408
2231,49.035408
2232,49.035408
2233,49.035408
2234,49.035408
2235,49.035408
2236,49.035408
2237,49.035408
2238,49.05983
2239,49.05983
2240,49.10867
2241,49.10867
2242,49.10867
2243,49.13309
2244,49.13309
2245,49.13309
2246,49.13309
2247,49.035408
2248,49.035408
2249,49.035408
2250,48.86447
2251,48.86447
2252,48.644688
2253,48.644688
2254,48.644688
2255,48.35165
2256,48.35165
2257,48.05861
2258,48.05861
2259,47.83883
2260,47.83883
2261,47.83883
2262,47.69231
2263,47.69231
2264,47.594627
2265,47.594627
2266,47.594627
2267,47.57021
2268,47.57021
2269,47.52137
2270,47.52137
2271,47.39927
2272,47.39927
2273,47.39927
2274,47.17949
2275,47.17949
2276,46.78877
2277,46.78877
2278,46.78877
2279,46.34921
2280,46.34921
2281,45.95849
2282,45.95849
2283,45.714287
2284,45.714287
2285,45.714287
2286,45.763126
2287,45.763126
2288,46.153847
2289,46.153847
2290,46.153847
2291,46.78877
2292,46.78877
2293,47.57021
2294,47.57021
2295,48.40049
2296,48.40049
2297,48.40049
2298,49.15751
2299,49.15751
2300,49.84127
2301,49.84127
2302,49.84127
2303,50.45177
2304,50.45177
2305,50.964592
2306,50.964592
2307,51.428574
2308,51.428574
2309,51.428574
2310,51.819294
2311,51.819294
2312,52.185593
2313,52.185593
2314,52.185593
2315,52.551895
2316,52.551895
2317,52.893772
2318,52.893772
2319,53.260075
2320,53.260075
2321,53.260075
2322,53.626373
2323,53.626373
2324,53.968254
2325,53.968254
2326,53.968254
2327,54.236874
2328,54.236874
2329,54.383396
2330,54.383396
2331,54.285717
2332,54.285717
2333,54.285717
2334,53.748474
2335,53.748474
2336,52.551895
2337,52.551895
2338,52.551895
2339,50.744812
2340,50.744812
2341,48.47375
2342,48.47375
2343,45.787548
2344,45.787548
2345,45.787548
2346,43.003662
2347,43.003662
2348,40.29304
2349,40.29304
2350,40.29304
2351,37.89988
2352,37.89988
2353,36.117218
2354,36.117218
2355,35.018314
2356,35.018314
2357,35.018314
2358,34.432236
2359,34.432236
2360,34.163616
2361,34.163616
2362,34.163616
2363,34.139194
2364,34.139194
2365,34.236874
2366,34.236874
2367,34.456654
2368,34.456654
2369,34.456654
2370,34.945057
2371,34.945057
2372,35.921856
2373,35.921856
2374,35.921856
2375,37.558
2376,37.558
2377,39.70696
2378,39.70696
2379,42.124542
2380,42.124542
2381,42.124542
2382,45.054947
2383,45.054947
2384,47.545788
2385,47.545788
2386,47.545788
2387,48.79121
2388,48.79121
2389,49.40171
2390,49.40171
2391,49.71917
2392,49.71917
2393,49.71917
2394,49.865692
2395,49.865692
2396,49.93895
2397,49.93895
2398,49.93895
2399,49.98779
2400,49.98779
2401,50.01221
2402,50.01221
2403,50.01221
2404,50.01221
2405,50.01221
2406,50.01221
2407,50.01221
2408,50.01221
2409,50.01221
2410,50.01221
2411,50.01221
2412,50.01221
2413,50.01221
2414,50.01221
2415,50.01221
2416,50.01221
2417,50.01221
2418,50.01221
2419,50.01221
2420,50.01221
2421,50.01221
2422,50.01221
2423,50.01221
2424,50.01221
2425,50.01221
2426,50.01221
2427,50.01221
2428,50.01221
2429,50.01221
2430,50.01221
2431,50.01221
2432,50.01221
2433,50.01221
2434,50.01221
2435,50.01221
2436,50.01221
2437,50.01221
2438,50.01221
2439,50.01221
2440,50.01221
2441,50.01221
2442,50.01221
2443,50.01221
2444,50.01221
2445,50.01221
2446,50.01221
2447,50.01221
2448,50.01221
2449,50.01221
2450,50.01221
2451,50.01221
2452,50.01221
2453,50.01221
2454,50.01221
2455,50.01221
2456,50.01221
2457,50.01221
2458,50.01221
2459,50.01221
2460,50.01221
2461,50.01221
2462,50.01221
2463,50.01221
2464,50.01221
2465,50.01221
2466,50.01221
2467,50.01221
2468,50.01221
2469,50.01221
2470,50.01221
2471,50.01221
2472,50.01221
2473,50.01221
2474,50.01221
2475,50.01221
2476,50.01221
2477,50.01221
2478,50.01221
2479,50.01221
2480,50.01221
2481,50.01221
2482,50.01221
2483,50.01221
2484,50.01221
2485,50.01221
2486,50.01221
2487,50.01221
2488,50.01221
2489,50.01221
2490,50.01221
2491,50.01221
2492,50.01221
2493,50.01221
2494,50.01221
2495,50.01221
2496,50.01221
2497,50.01221
2498,50.01221
2499,50.01221
2500,50.01221
2501,50.01221
2502,50.01221
2503,50.01221
2504,50.01221
2505,50.01221
2506,50.01221
2507,50.01221
2508,50.01221
2509,50.01221
2510,50.01221
2511,50.01221
2512,50.01221
2513,50.01221
2514,50.01221
2515,50.01221
2516,50.01221
2517,50.01221
2518,50.01221
2519,50.01221
2520,50.01221
2521,50.01221
2522,50.01221
2523,50.01221
2524,50.01221
2525,50.01221
2526,50.01221
2527,50.01221
2528,50.01221
2529,50.01221
2530,50.01221
2531,50.01221
2532,50.01221
2533,50.01221
2534,50.01221
2535,50.01221
2536,50.01221
2537,50.01221
2538,50.01221
2539,50.01221
2540,50.01221
2541,50.01221
2542,50.01221
2543,50.01221
2544,50.01221
2545,50.01221
2546,50.01221
2547,50.01221
2548,50.01221
2549,50.01221
2550,50.01221
2551,50.01221
2552,50.01221
2553,50.01221
2554,50.01221
2555,
2556,
2557,50.01221
2558,50.01221
2559,50.01221
2560,50.01221
2561,50.01221
2562,50.01221
2563,50.01221
2564,50.01221
2565,50.01221
2566,50.01221
2567,50.01221
2568,50.01221
2569,50.01221
2570,50.01221
2571,50.01221
2572,50.01221
2573,50.01221
2574,50.01221
2575,50.01221
2576,50.01221
2577,50.01221
2578,50.01221
2579,50.01221
2580,50.01221
2581,50.01221
2582,50.01221
2583,50.01221
2584,50.01221
2585,50.01221
2586,50.01221
2587,50.01221
2588,50.01221
2589,50.01221
2590,50.01221
2591,50.01221
2592,50.01221
2593,50.01221
2594,50.01221
2595,50.01221
2596,50.01221
2597,50.01221
2598,50.01221
2599,50.01221
2600,50.01221
2601,50.01221
2602,50.01221
2603,50.01221
2604,50.01221
2605,50.01221
2606,50.01221
2607,50.01221
2608,50.01221
2609,50.01221
2610,50.01221
2611,50.01221
2612,50.01221
2613,50.01221
2614,50.01221
2615,50.01221
2616,50.01221
2617,50.01221
2618,50.01221
2619,50.01221
2620,50.01221
2621,50.01221
2622,50.01221
2623,50.01221
2624,50.01221
2625,50.01221
2626,50.01221
2627,50.01221
2628,50.01221
2629,50.01221
2630,50.01221
2631,50.01221
2632,50.01221
2633,50.01221
2634,50.01221
2635,50.01221
2636,49.71917
2637,49.71917
2638,49.71917
2639,49.57265
2640,49.57265
2641,49.79243
2642,49.79243
2643,50.256413
2644,50.256413
2645,50.256413
2646,51.916973
2647,51.916973
2648,54.920635
2649,54.920635
2650,54.920635
2651,58.94994
2652,58.94994
2653,63.785107
2654,63.785107
2655,68.54701
2656,68.54701
2657,68.54701
2658,72.82051
2659,72.82051
2660,76.190475
2661,76.190475
2662,76.190475
2663,78.14408
2664,78.14408
2665,78.73016
2666,78.73016
2667,78.33944
2668,78.33944
2669,78.33944
2670,77.4359
2671,77.4359
2672,76.337
2673,76.337
2674,76.337
2675,75.409035
2676,75.409035
2677,74.79854
2678,74.79854
2679,74.55434
2680,74.55434
2681,74.55434
2682,74.77412
2683,74.77412
2684,75.33578
2685,75.33578
2686,75.33578
2687,76.0928
2688,76.0928
2689,76.849815
2690,76.849815
2691,70.42735
2692,70.42735
2693,70.42735
2694,60.21978
2695,60.21978
2696,55.115997
2697,55.115997
2698,55.115997
2699,52.576313
2700,52.576313
2701,51.306473
2702,51.306473
2703,50.67155
2704,50.67155
2705,50.67155
2706,50.35409
2707,50.35409
2708,50.10989
2709,50.10989
2710,50.10989
2711,50.06105
2712,50.06105
2713,50.036633
2714,50.036633
2715,50.036633
2716,50.036633
2717,50.036633
2718,50.036633
2719,50.036633
2720,50.036633
2721,50.036633
2722,50.036633
2723,50.036633
2724,50.036633
2725,50.036633
2726,50.036633
2727,50.036633
2728,50.036633
2729,50.036633
2730,50.036633
2731,50.036633
2732,50.036633
2733,50.036633
2734,50.036633
2735,50.036633
2736,50.036633
2737,50.036633
2738,50.036633
2739,50.036633
2740,50.036633
2741,50.036633
2742,50.036633
2743,50.036633
2744,50.036633
2745,50.036633
2746,50.036633
2747,50.036633
2748,50.036633
2749,50.036633
2750,50.036633
2751,50.036633
2752,50.036633
2753,50.036633
2754,50.036633
2755,50.036633
2756,50.036633
2757,50.036633
2758,50.036633
2759,50.036633
2760,50.036633
2761,50.036633
2762,50.036633
2763,50.036633
2764,50.036633
2765,50.036633
2766,50.036633
2767,50.036633
2768,50.036633
2769,50.036633
2770,50.036633
2771,50.036633
2772,50.036633
2773,50.036633
2774,50.036633
2775,50.036633
2776,50.036633
2777,50.036633
2778,50.036633
2779,50.036633
2780,50.036633
2781,50.036633
2782,50.036633
2783,50.036633
2784,50.036633
2785,50.036633
2786,50.036633
2787,50.036633
2788,50.036633
2789,50.036633
2790,50.036633
2791,50.036633
2792,50.036633
2793,50.036633
2794,50.036633
2795,50.036633
2796,50.036633
2797,50.036633
2798,50.036633
2799,50.036633
2800,50.036633
2801,50.036633
2802,50.036633
2803,50.036633
2804,50.036633
2805,50.036633
2806,50.036633
2807,50.036633
2808,50.036633
2809,50.036633
2810,50.036633
2811,50.036633
2812,50.036633
2813,50.036633
2814,50.036633
2815,50.036633
2816,50.036633
2817,50.036633
2818,50.036633
2819,50.036633
2820,50.036633
2821,50.036633
2822,50.036633
2823,50.036633
2824,50.036633
2825,50.036633
2826,50.036633
2827,50.036633
2828,50.036633
2829,50.036633
2830,50.036633
2831,50.036633
2832,50.036633
2833,50.036633
2834,50.036633
2835,50.036633
2836,50.036633
2837,50.036633
2838,50.036633
2839,50.036633
2840,50.036633
2841,50.036633
2842,50.036633
2843,50.036633
2844,50.036633
2845,50.036633
2846,50.036633
2847,50.036633
2848,50.036633
2849,50.036633
2850,50.036633
2851,50.036633
2852,50.036633
2853,50.036633
2854,50.036633
2855,50.036633
2856,50.036633
2857,50.036633
2858,50.036633
2859,50.036633
2860,50.036633
2861,50.036633
2862,50.036633
2863,50.036633
2864,50.036633
2865,50.036633
2866,50.036633
2867,50.036633
2868,50.036633
2869,50.036633
2870,50.036633
2871,50.036633
2872,50.036633
2873,50.036633
2874,50.036633
2875,50.036633
2876,50.036633
2877,50.036633
2878,50.036633
2879,50.036633
2880,50.036633
2881,50.036633
2882,50.036633
2883,49.865692
2884,49.865692
2885,49.865692
2886,49.54823
2887,49.54823
2888,49.30403
2889,49.30403
2890,49.30403
2891,49.035408
2892,49.035408
2893,48.644688
2894,48.644688
2895,48.13187
2896,48.13187
2897,48.13187
2898,47.39927
2899,47.39927
2900,46.129425
2901,46.129425
2902,46.129425
2903,43.760685
2904,43.760685
2905,40.31746
2906,40.31746
2907,35.848595
2908,35.848595
2909,35.848595
2910,29.987791
2911,29.987791
2912,23.150183
2913,23.150183
2914,23.150183
2915,15.897436
2916,15.897436
2917,9.18193
2918,9.18193
2919,4.590965
2920,4.590965
2921,4.590965
2922,2.2954824
2923,2.2954824
2924,1.1477412
2925,1.1477412
2926,1.1477412
2927,0.61050063
2928,0.61050063
2929,0.51282054
2930,0.51282054
2931,0.976801
2932,0.976801
2933,0.976801
2934,1.9047619
2935,1.9047619
2936,3.1990232
2937,3.1990232
2938,3.1990232
2939,15.482296
2940,15.482296
2941,32.747253
2942,32.747253
2943,41.39194
2944,41.39194
2945,41.39194
2946,45.714287
2947,45.714287
2948,47.863247
2949,47.863247
2950,47.863247
2951,48.93773
2952,48.93773
2953,49.47497
2954,49.47497
2955,49.74359
2956,49.74359
2957,49.74359
2958,49.89011
2959,49.89011
2960,49.96337
2961,49.96337
2962,49.96337
2963,49.98779
2964,49.98779
2965,50.01221
2966,50.01221
2967,50.01221
2968,50.01221
2969,50.01221
2970,50.01221
2971,50.01221
2972,50.01221
2973,50.01221
2974,50.01221
2975,50.01221
2976,50.01221
2977,50.01221
2978,50.01221
2979,50.01221
2980,50.01221
2981,50.01221
2982,50.01221
2983,50.01221
2984,50.01221
2985,50.01221
2986,50.01221
2987,50.01221
2988,50.01221
2989,50.01221
2990,50.01221
2991,50.01221
2992,50.01221
2993,50.01221
2994,50.01221
2995,50.01221
2996,50.01221
2997,50.01221
2998,50.01221
2999,50.01221
3000,50.01221
3001,50.01221
3002,50.01221
3003,50.01221
3004,50.01221
3005,50.01221
3006,50.01221
3007,50.01221
3008,50.01221
3009,50.01221
3010,50.01221
3011,50.01221
3012,50.01221
3013,50.01221
3014,50.01221
3015,
3016,
3017,
3018,50.01221
3019,50.01221
3020,50.01221
3021,50.01221
3022,50.01221
3023,50.01221
3024,50.01221
3025,50.01221
3026,50.01221
3027,50.01221
3028,50.01221
3029,50.01221
3030,50.01221
3031,50.01221
3032,50.01221
3033,50.01221
3034,50.01221
3035,50.01221
3036,50.01221
3037,50.01221
3038,50.01221
3039,50.01221
3040,50.01221
3041,50.01221
3042,50.01221
3043,50.01221
3044,50.01221
3045,50.01221
3046,50.01221
3047,50.01221
3048,50.01221
3049,50.01221
3050,50.01221
3051,50.01221
3052,50.01221
3053,50.01221
3054,50.01221
3055,50.01221
3056,50.01221
3057,50.01221
3058,50.01221
3059,50.01221
3060,50.01221
3061,50.01221
3062,50.01221
3063,50.01221
3064,50.01221
3065,50.01221
3066,50.01221
3067,50.01221
3068,50.01221
3069,50.01221
3070,50.01221
3071,50.01221
3072,50.01221
3073,50.01221
3074,50.01221
3075,50.01221
3076,50.01221
3077,50.01221
3078,50.01221
3079,50.01221
3080,50.01221
3081,50.01221
3082,50.01221
3083,50.01221
3084,50.01221
3085,50.01221
3086,50.01221
3087,50.01221
3088,50.01221
3089,50.01221
3090,50.01221
3091,50.01221
3092,50.01221
3093,50.01221
3094,50.01221
3095,50.01221
3096,50.01221
3097,50.01221
3098,50.01221
3099,50.01221
3100,50.01221
3101,50.01221
3102,50.01221
3103,50.01221
3104,50.01221
3105,50.01221
3106,50.01221
3107,50.01221
3108,50.01221
3109,50.01221
3110,50.01221
3111,50.01221
3112,50.01221
3113,50.01221
3114,50.01221
3115,50.01221
3116,50.01221
3117,50.01221
3118,50.01221
3119,50.01221
3120,50.01221
3121,50.01221
3122,50.01221
3123,50.01221
3124,50.01221
3125,50.01221
3126,50.01221
3127,50.01221
3128,50.01221
3129,50.01221
3130,50.01221
3131,50.01221
3132,50.01221
3133,50.01221
3134,50.01221
3135,50.01221
3136,50.01221
3137,50.01221
3138,50.01221
3139,50.01221
3140,50.01221
3141,50.01221
3142,50.01221
3143,50.01221
3144,50.01221
3145,50.01221
3146,50.01221
3147,50.01221
3148,50.01221
3149,50.01221
3150,50.01221
3151,50.01221
3152,50.01221
3153,50.01221
3154,50.01221
3155,50.01221
3156,50.01221
3157,50.01221
3158,50.01221
3159,50.01221
3160,50.01221
3161,50.01221
3162,50.01221
3163,50.01221
3164,50.01221
3165,50.01221
3166,50.01221
3167,50.01221
3168,50.01221
3169,50.01221
3170,50.01221
3171,50.01221
3172,50.01221
3173,50.01221
3174,50.01221
3175,50.01221
3176,50.01221
3177,50.01221
3178,50.01221
3179,50.01221
3180,50.01221
3181,50.01221
3182,50.01221
3183,50.01221
3184,50.01221
3185,50.01221
3186,50.01221
3187,50.01221
3188,50.01221
3189,50.01221
3190,50.01221
3191,50.01221
3192,50.01221
3193,50.01221
3194,50.01221
3195,50.01221
3196,50.01221
3197,50.01221
3198,50.01221
3199,50.01221
3200,50.01221
3201,50.01221
3202,50.01221
3203,50.01221
3204,50.01221
3205,50.01221
3206,50.01221
3207,50.01221
3208,50.01221
3209,50.01221
3210,50.01221
3211,50.01221
3212,50.01221
3213,50.01221
3214,50.01221
3215,50.01221
3216,50.01221
3217,50.01221
3218,50.01221
3219,50.01221
3220,50.01221
3221,50.01221
3222,50.01221
3223,50.01221
3224,50.01221
3225,50.01221
3226,50.01221
3227,50.01221
3228,50.01221
3229,50.01221
3230,50.01221
3231,50.01221
3232,50.01221
3233,50.01221
3234,50.01221
3235,50.01221
3236,50.01221
3237,50.01221
3238,50.01221
3239,50.01221
3240,50.01221
3241,50.01221
3242,50.01221
3243,50.01221
3244,50.01221
3245,50.01221
3246,50.01221
3247,50.01221
3248,50.01221
3249,50.01221
3250,50.01221
3251,50.01221
3252,50.01221
3253,50.01221
3254,50.01221
3255,50.01221
3256,50.01221
3257,50.01221
3258,50.01221
3259,50.01221
3260,50.01221
3261,50.01221
3262,50.01221
3263,50.01221
3264,50.01221
3265,50.01221
3266,50.01221
3267,50.01221
3268,50.01221
3269,50.01221
3270,50.01221
3271,50.01221
3272,50.01221
3273,50.01221
3274,50.01221
3275,50.01221
3276,50.01221
3277,50.01221
3278,50.01221
3279,50.01221
3280,50.01221
3281,50.01221
3282,50.01221
3283,50.01221
3284,50.01221
3285,50.01221
3286,50.01221
3287,50.01221
3288,50.01221
3289,50.01221
3290,50.01221
3291,50.01221
3292,50.01221
3293,50.01221
3294,50.01221
3295,50.01221
3296,50.01221
3297,50.01221
3298,50.01221
3299,50.01221
3300,50.01221
3301,50.01221
3302,50.01221
3303,50.01221
3304,50.01221
3305,50.01221
3306,50.01221
3307,50.01221
3308,50.01221
3309,50.01221
3310,50.01221
3311,50.01221
3312,50.01221
3313,50.01221
3314,50.01221
3315,50.01221
3316,50.01221
3317,50.01221
3318,50.01221
3319,50.01221
3320,50.01221
3321,50.01221
3322,50.01221
3323,50.01221
3324,50.01221
3325,50.01221
3326,50.01221
3327,50.01221
3328,50.01221
3329,50.01221
3330,50.01221
3331,50.01221
3332,50.01221
3333,50.01221
3334,50.01221
3335,50.01221
3336,50.01221
3337,50.01221
3338,50.01221
3339,50.01221
3340,50.01221
3341,50.01221
3342,50.01221
3343,50.01221
3344,50.01221
3345,50.01221
3346,50.01221
3347,50.01221
3348,50.01221
3349,50.01221
3350,50.01221
3351,50.01221
3352,50.01221
3353,50.01221
3354,50.01221
3355,50.01221
3356,50.01221
3357,50.01221
3358,50.01221
3359,50.01221
3360,50.01221
3361,50.01221
3362,50.01221
3363,50.01221
3364,50.01221
3365,50.01221
3366,50.01221
3367,50.01221
3368,50.01221
3369,50.01221
3370,50.01221
3371,50.01221
3372,50.01221
3373,50.01221
3374,50.01221
3375,50.01221
3376,50.01221
3377,50.01221
3378,50.01221
3379,50.01221
3380,50.01221
3381,50.01221
3382,50.01221
3383,50.01221
3384,50.01221
3385,50.01221
3386,50.01221
3387,50.01221
3388,50.01221
3389,50.01221
3390,50.01221
3391,50.01221
3392,50.01221
3393,50.01221
3394,50.01221
3395,50.01221
3396,50.01221
3397,50.01221
3398,50.01221
3399,50.01221
3400,50.01221
3401,50.01221
3402,50.01221
3403,50.01221
3404,50.01221
3405,50.01221
3406,50.01221
3407,50.01221
3408,50.01221
3409,50.01221
3410,50.01221
3411,50.01221
3412,50.01221
3413,50.01221
3414,50.01221
3415,50.01221
3416,50.01221
3417,50.01221
3418,50.01221
3419,50.01221
3420,50.01221
3421,50.01221
3422,50.01221
3423,50.01221
3424,50.01221
3425,50.01221
3426,50.01221
3427,50.01221
3428,50.01221
3429,50.01221
3430,50.01221
3431,50.01221
3432,50.01221
3433,50.01221
3434,50.01221
3435,50.01221
3436,50.01221
3437,50.01221
3438,50.01221
3439,50.01221
3440,50.01221
3441,50.01221
3442,50.01221
3443,50.01221
3444,50.01221
3445,50.01221
3446,50.01221
3447,50.01221
3448,50.01221
3449,50.01221
3450,49.71917
3451,49.71917
3452,49.13309
3453,49.13309
3454,49.13309
3455,48.595848
3456,48.595848
3457,48.15629
3458,48.15629
3459,47.83883
3460,47.83883
3461,47.83883
3462,47.643467
3463,47.643467
3464,47.52137
3465,47.52137
3466,47.52137
3467,47.472527
3468,47.472527
3469,47.472527
3470,47.472527
3471,47.472527
3472,47.472527
3473,47.472527
3474,47.44811
3475,47.44811
3476,
3477,
3478,
3479,47.39927
3480,47.39927
3481,47.30159
3482,47.30159
3483,47.17949
3484,47.17949
3485,47.17949
3486,47.032967
3487,47.032967
3488,46.886448
3489,46.886448
3490,46.886448
3491,46.78877
3492,46.78877
3493,46.73993
3494,46.73993
3495,46.764347
3496,46.764347
3497,46.764347
3498,47.61905
3499,47.61905
3500,48.815628
3501,48.815628
3502,48.815628
3503,49.42613
3504,49.42613
3505,49.71917
3506,49.71917
3507,49.865692
3508,49.865692
3509,49.865692
3510,49.93895
3511,49.93895
3512,49.98779
3513,49.98779
3514,49.98779
3515,50.01221
3516,50.01221
3517,50.01221
3518,50.01221
3519,50.01221
3520,50.01221
3521,50.01221
3522,50.01221
3523,50.01221
3524,50.01221
3525,50.01221
3526,50.01221
3527,50.01221
3528,50.01221
3529,50.01221
3530,50.01221
3531,50.01221
3532,50.01221
3533,50.01221
3534,50.01221
3535,50.01221
3536,50.01221
3537,50.01221
3538,50.01221
3539,50.01221
3540,50.01221
3541,50.01221
3542,50.01221
3543,50.01221
3544,50.01221
3545,50.01221
3546,50.01221
3547,50.01221
3548,50.01221
3549,50.01221
3550,50.01221
3551,50.01221
3552,50.01221
3553,50.01221
3554,50.01221
3555,50.01221
3556,50.01221
3557,50.01221
3558,50.01221
3559,50.01221
3560,50.01221
3561,50.01221
3562,50.01221
3563,50.01221
3564,50.01221
3565,50.01221
3566,50.01221
3567,50.01221
3568,50.01221
3569,50.01221
3570,50.01221
3571,50.01221
3572,50.01221
3573,50.01221
3574,50.01221
3575,50.01221
3576,50.01221
3577,50.01221
3578,50.01221
3579,50.01221
3580,50.01221
3581,50.01221
3582,50.01221
3583,50.01221
3584,50.01221
3585,50.01221
3586,50.01221
3587,50.01221
3588,50.01221
3589,50.01221
3590,50.01221
3591,50.01221
3592,50.01221
3593,50.01221
3594,50.01221
3595,50.01221
3596,50.01221
3597,50.01221
3598,50.01221
3599,50.01221
3600,50.01221
3601,50.01221
3602,50.01221
3603,50.01221
3604,50.01221
3605,50.01221
3606,50.01221
3607,50.01221
3608,50.01221
3609,50.01221
3610,50.01221
3611,50.01221
3612,50.01221
3613,50.01221
3614,50.01221
3615,50.01221
3616,50.01221
3617,50.01221
3618,50.01221
3619,50.01221
3620,50.01221
3621,50.01221
3622,50.01221
3623,50.01221
3624,50.01221
3625,50.01221
3626,50.01221
3627,50.01221
3628,50.01221
3629,50.01221
3630,50.01221
3631,50.01221
3632,50.01221
3633,50.01221
3634,50.01221
3635,50.01221
3636,50.01221
3637,50.01221
3638,50.01221
3639,50.01221
3640,50.01221
3641,50.01221
3642,50.01221
3643,50.01221
3644,50.01221
3645,50.01221
3646,50.01221
3647,50.01221
3648,50.01221
3649,50.01221
3650,50.01221
3651,50.01221
3652,50.01221
3653,50.01221
3654,50.01221
3655,50.01221
3656,50.01221
3657,50.01221
3658,50.01221
3659,50.01221
3660,50.01221
3661,50.01221
3662,50.01221
3663,50.01221
3664,50.01221
3665,50.01221
3666,50.01221
3667,50.01221
3668,50.01221
3669,50.01221
3670,50.01221
3671,50.01221
3672,50.01221
3673,50.01221
3674,50.01221
3675,50.01221
3676,50.01221
3677,50.01221
3678,50.01221
3679,50.01221
3680,50.01221
3681,50.01221
3682,50.01221
3683,50.01221
3684,50.01221
3685,50.01221
3686,50.01221
3687,50.01221
3688,50.01221
3689,50.01221
3690,50.01221
3691,50.01221
3692,50.01221
3693,50.01221
3694,50.01221
3695,50.01221
3696,50.01221
3697,50.01221
3698,50.01221
3699,50.01221
3700,50.01221
3701,50.01221
3702,50.01221
3703,50.01221
3704,50.01221
3705,50.01221
3706,50.01221
3707,50.01221
3708,50.01221
3709,50.01221
3710,50.01221
3711,50.01221
3712,50.01221
3713,50.01221
3714,50.01221
3715,50.01221
3716,50.01221
3717,50.01221
3718,50.01221
3719,50.01221
3720,50.01221
3721,50.01221
3722,50.01221
3723,50.01221
3724,50.01221
3725,50.01221
3726,50.01221
3727,50.01221
3728,50.01221
3729,50.01221
3730,50.01221
3731,50.01221
3732,50.01221
3733,50.01221
3734,50.01221
3735,50.01221
3736,50.01221
3737,50.01221
3738,49.91453
3739,49.91453
3740,49.81685
3741,49.81685
3742,49.81685
3743,49.865692
3744,49.865692
3745,49.98779
3746,49.98779
3747,50.18315
3748,50.18315
3749,50.18315
3750,50.40293
3751,50.40293
3752,50.62271
3753,50.62271
3754,50.62271
3755,50.89133
3756,50.89133
3757,51.135532
3758,51.135532
3759,51.355312
3760,51.355312
3761,51.355312
3762,51.575092
3763,51.575092
3764,51.746033
3765,51.746033
3766,51.746033
3767,51.89255
3768,51.89255
3769,52.014652
3770,52.014652
3771,52.11233
3772,52.11233
3773,52.11233
3774,52.210014
3775,52.210014
3776,52.33211
3777,52.33211
3778,52.33211
3779,52.478634
3780,52.478634
3781,52.625153
3782,52.625153
3783,52.796093
3784,52.796093
3785,52.796093
3786,52.942616
3787,52.942616
3788,53.089134
3789,53.089134
3790,53.089134
3791,53.235653
3792,53.235653
3793,53.357754
3794,53.357754
3795,53.455433
3796,53.455433
3797,53.455433
3798,53.504276
3799,53.504276
3800,53.528694
3801,53.528694
3802,53.528694
3803,52.649574
3804,52.649574
3805,51.33089
3806,51.33089
3807,50.67155
3808,50.67155
3809,50.67155
3810,50.35409
3811,50.35409
3812,50.18315
3813,50.18315
3814,50.18315
3815,50.10989
3816,50.10989
3817,50.06105
3818,50.06105
3819,50.036633
3820,50.036633
3821,50.036633
3822,50.036633
3823,50.036633
3824,50.036633
3825,50.036633
3826,50.036633
3827,50.036633
3828,50.036633
3829,50.036633
3830,50.036633
3831,50.036633
3832,50.036633
3833,50.036633
3834,50.036633
3835,50.036633
3836,50.036633
3837,50.036633
3838,50.036633
3839,50.036633
3840,50.036633
3841,50.036633
3842,50.036633
3843,50.036633
3844,50.036633
3845,50.036633
3846,50.036633
3847,50.036633
3848,50.036633
3849,50.036633
3850,50.036633
3851,50.036633
3852,50.036633
3853,50.036633
3854,50.036633
3855,50.036633
3856,50.036633
3857,50.036633
3858,50.036633
3859,50.036633
3860,
3861,
3862,
3863,50.036633
3864,50.036633
3865,50.036633
3866,50.036633
3867,50.036633
3868,50.036633
3869,50.036633
3870,50.036633
3871,50.036633
3872,50.036633
3873,50.036633
3874,50.036633
3875,50.036633
3876,50.036633
3877,50.036633
3878,50.036633
3879,50.036633
3880,50.036633
3881,50.036633
3882,50.036633
3883,50.036633
3884,50.036633
3885,50.036633
3886,50.036633
3887,50.036633
3888,50.036633
3889,50.036633
3890,50.036633
3891,50.036633
3892,50.036633
3893,50.036633
3894,49.89011
3895,49.89011
3896,49.69475
3897,49.69475
3898,49.69475
3899,49.62149
3900,49.62149
3901,49.59707
3902,49.59707
3903,49.62149
3904,49.62149
3905,49.62149
3906,49.62149
3907,49.62149
3908,49.62149
3909,49.62149
3910,49.62149
3911,49.59707
3912,49.59707
3913,49.57265
3914,49.57265
3915,49.54823
3916,49.54823
3917,49.54823
3918,49.54823
3919,49.54823
3920,49.57265
3921,49.57265
3922,49.57265
3923,49.59707
3924,49.59707
3925,49.62149
3926,49.62149
3927,49.62149
3928,49.62149
3929,49.62149
3930,49.59707
3931,49.59707
3932,49.54823
3933,49.54823
3934,49.54823
3935,49.47497
3936,49.47497
3937,49.35287
3938,49.35287
3939,49.23077
3940,49.23077
3941,49.23077
3942,49.13309
3943,49.13309
3944,49.05983
3945,49.05983
3946,49.05983
3947,49.01099
3948,49.01099
3949,48.98657
3950,48.98657
3951,48.96215
3952,48.96215
3953,48.96215
3954,48.96215
3955,48.96215
3956,48.96215
3957,48.96215
3958,48.96215
3959,48.96215
3960,48.96215
3961,48.96215
3962,48.96215
3963,48.96215
3964,48.96215
3965,48.96215
3966,48.96215
3967,48.96215
3968,48.96215
3969,48.96215
3970,48.96215
3971,48.96215
3972,48.96215
3973,48.96215
3974,48.96215
3975,48.96215
3976,48.96215
3977,48.96215
3978,48.93773
3979,48.93773
3980,48.88889
3981,48.88889
3982,48.88889
3983,48.84005
3984,48.84005
3985,48.79121
3986,48.79121
3987,48.74237
3988,48.74237
3989,48.74237
3990,48.69353
3991,48.69353
3992,48.644688
3993,48.644688
3994,48.644688
3995,48.595848
3996,48.595848
3997,48.57143
3998,48.57143
3999,48.57143
4000,48.57143
4001,48.57143
4002,48.57143
4003,48.57143
4004,48.54701
4005,48.54701
4006,48.54701
4007,48.49817
4008,48.49817
4009,48.44933
4010,48.44933
4011,48.37607
4012,48.37607
4013,48.37607
4014,48.27839
4015,48.27839
4016,48.22955
4017,48.22955
4018,48.22955
4019,48.18071
4020,48.18071
4021,48.15629
4022,48.15629
4023,48.15629
4024,48.15629
4025,48.15629
4026,48.15629
4027,48.15629
4028,48.18071
4029,48.18071
4030,48.18071
4031,48.253967
4032,48.253967
4033,48.32723
4034,48.32723
4035,48.40049
4036,48.40049
4037,48.40049
4038,48.44933
4039,48.44933
4040,48.52259
4041,48.52259
4042,48.52259
4043,48.62027
4044,48.62027
4045,48.69353
4046,48.69353
4047,48.71795
4048,48.71795
4049,48.71795
4050,48.74237
4051,48.74237
4052,48.71795
4053,48.71795
4054,48.71795
4055,48.66911
4056,48.66911
4057,48.62027
4058,48.62027
4059,48.57143
4060,48.57143
4061,48.57143
4062,48.49817
4063,48.49817
4064,48.424908
4065,48.424908
4066,48.424908
4067,48.37607
4068,48.37607
4069,48.32723
4070,48.32723
4071,48.30281
4072,48.30281
4073,48.30281
4074,48.27839
4075,48.27839
4076,48.27839
4077,48.27839
4078,48.27839
4079,48.27839
4080,48.27839
4081,48.27839
4082,48.27839
4083,48.27839
4084,48.27839
4085,48.27839
4086,48.27839
4087,48.27839
4088,48.27839
4089,48.27839
4090,48.27839
4091,48.27839
4092,48.27839
4093,48.30281
4094,48.30281
4095,48.32723
4096,48.32723
4097,48.32723
4098,48.40049
4099,48.40049
4100,48.49817
4101,48.49817
4102,48.49817
4103,48.62027
4104,48.62027
4105,48.76679
4106,48.76679
4107,48.86447
4108,48.86447
4109,48.86447
4110,48.86447
4111,48.86447
4112,48.71795
4113,48.71795
4114,48.71795
4115,48.44933
4116,48.44933
4117,48.08303
4118,48.08303
4119,47.66789
4120,47.66789
4121,47.66789
4122,47.252747
4123,47.252747
4124,46.91087
4125,46.91087
4126,46.91087
4127,46.61783
4128,46.61783
4129,46.422466
4130,46.422466
4131,46.324787
4132,46.324787
4133,46.324787
4134,46.300365
4135,46.300365
4136,46.300365
4137,46.300365
4138,46.300365
4139,46.324787
4140,46.324787
4141,46.34921
4142,46.34921
4143,46.324787
4144,46.324787
4145,46.324787
4146,46.300365
4147,46.300365
4148,46.202686
4149,46.202686
4150,46.202686
4151,46.080585
4152,46.080585
4153,45.982906
4154,45.982906
4155,45.909645
4156,45.909645
4157,45.909645
4158,45.885227
4159,45.885227
4160,45.95849
4161,45.95849
4162,45.95849
4163,46.080585
4164,46.080585
4165,46.275948
4166,46.275948
4167,46.520145
4168,46.520145
4169,46.520145
4170,46.764347
4171,46.764347
4172,46.984127
4173,46.984127
4174,46.984127
4175,47.17949
4176,47.17949
4177,47.374847
4178,47.374847
4179,47.545788
4180,47.545788
4181,47.545788
4182,47.69231
4183,47.69231
4184,47.814407
4185,47.814407
4186,47.814407
4187,47.88767
4188,47.88767
4189,47.93651
4190,47.93651
4191,47.985348
4192,47.985348
4193,47.985348
4194,48.034187
4195,48.034187
4196,48.08303
4197,48.08303
4198,48.08303
4199,48.13187
4200,48.13187
4201,48.18071
4202,48.18071
4203,48.253967
4204,48.253967
4205,48.253967
4206,48.32723
4207,48.32723
4208,48.424908
4209,48.424908
4210,48.424908
4211,48.49817
4212,48.49817
4213,48.54701
4214,48.54701
4215,48.595848
4216,48.595848
4217,48.595848
4218,48.644688
4219,48.644688
4220,48.69353
4221,48.69353
4222,48.69353
4223,48.74237
4224,48.74237
4225,48.79121
4226,48.79121
4227,48.815628
4228,48.815628
4229,48.815628
4230,48.84005
4231,48.84005
4232,48.84005
4233,48.84005
4234,48.84005
4235,48.84005
4236,48.84005
4237,48.84005
4238,48.84005
4239,48.84005
4240,48.84005
4241,48.84005
4242,48.86447
4243,48.86447
4244,48.93773
4245,48.93773
4246,48.93773
4247,49.01099
4248,49.01099
4249,49.13309
4250,49.13309
4251,49.27961
4252,49.27961
4253,49.27961
4254,49.42613
4255,49.42613
4256,49.57265
4257,49.57265
4258,49.57265
4259,49.71917
4260,49.71917
4261,49.865692
4262,49.865692
4263,50.01221
4264,50.01221
4265,50.01221
4266,50.13431
4267,50.13431
4268,50.256413
4269,50.256413
4270,50.256413
4271,50.37851
4272,50.37851
4273,50.525032
4274,50.525032
4275,50.647133
4276,50.647133
4277,50.647133
4278,50.744812
4279,50.744812
4280,50.84249
4281,50.84249
4282,50.84249
4283,50.915752
4284,50.915752
4285,50.989014
4286,50.989014
4287,51.06227
4288,51.06227
4289,51.06227
4290,51.15995
4291,51.15995
4292,51.257633
4293,51.257633
4294,51.257633
4295,51.33089
4296,51.33089
4297,51.355312
4298,51.355312
4299,51.404152
4300,51.404152
4301,51.404152
4302,51.45299
4303,51.45299
4304,51.477413
4305,51.477413
4306,51.477413
4307,51.477413
4308,51.477413
4309,51.477413
4310,51.477413
4311,51.477413
4312,51.477413
4313,51.477413
4314,51.50183
4315,51.50183
4316,51.575092
4317,51.575092
4318,51.575092
4319,51.648354
4320,51.648354
4321,
4322,
4323,51.746033
4324,51.746033
4325,51.746033
4326,51.868134
4327,51.868134
4328,52.014652
4329,52.014652
4330,52.014652
4331,52.161175
4332,52.161175
4333,52.33211
4334,52.33211
4335,52.527473
4336,52.527473
4337,52.527473
4338,52.698414
4339,52.698414
4340,52.869354
4341,52.869354
4342,52.869354
4343,53.040295
4344,53.040295
4345,53.162395
4346,53.162395
4347,53.284492
4348,53.284492
4349,53.284492
4350,53.357754
4351,53.357754
4352,53.431015
4353,53.431015
4354,53.431015
4355,53.479855
4356,53.479855
4357,53.528694
4358,53.528694
4359,53.577534
4360,53.577534
4361,53.577534
4362,53.601955
4363,53.601955
4364,53.650795
4365,53.650795
4366,53.650795
4367,53.699635
4368,53.699635
4369,53.748474
4370,53.748474
4371,53.797314
4372,53.797314
4373,53.797314
4374,53.821735
4375,53.821735
4376,53.846153
4377,53.846153
4378,53.846153
4379,53.870575
4380,53.870575
4381,53.870575
4382,53.870575
4383,53.894997
4384,53.894997
4385,53.894997
4386,53.919415
4387,53.919415
4388,53.919415
4389,53.919415
4390,53.919415
4391,53.919415
4392,53.919415
4393,53.919415
4394,53.919415
4395,53.919415
4396,53.919415
4397,53.919415
4398,53.919415
4399,53.919415
4400,53.943836
4401,53.943836
4402,53.943836
4403,53.992676
4404,53.992676
4405,54.017094
4406,54.017094
4407,54.017094
4408,54.017094
4409,54.017094
4410,54.041515
4411,54.041515
4412,54.114777
4413,54.114777
4414,54.114777
4415,54.163616
4416,54.163616
4417,54.188034
4418,54.188034
4419,54.236874
4420,54.236874
4421,54.236874
4422,54.285717
4423,54.285717
4424,54.310135
4425,54.310135
4426,54.310135
4427,54.334557
4428,54.334557
4429,54.383396
4430,54.383396
4431,54.407814
4432,54.407814
4433,54.407814
4434,54.407814
4435,54.407814
4436,54.407814
4437,54.407814
4438,54.407814
4439,54.407814
4440,54.407814
4441,54.407814
4442,54.407814
4443,54.407814
4444,54.407814
4445,54.407814
4446,54.432236
4447,54.432236
4448,54.481075
4449,54.481075
4450,54.481075
4451,54.505497
4452,54.505497
4453,54.505497
4454,54.505497
4455,54.505497
4456,54.505497
4457,54.505497
4458,54.529915
4459,54.529915
4460,54.578754
4461,54.578754
4462,54.578754
4463,54.603176
4464,54.603176
4465,54.603176
4466,54.603176
4467,54.603176
4468,54.603176
4469,54.603176
4470,54.603176
4471,54.603176
4472,54.603176
4473,54.603176
4474,54.603176
4475,54.603176
4476,54.603176
4477,54.603176
4478,54.603176
4479,54.603176
4480,54.603176
4481,54.603176
4482,54.603176
4483,54.603176
4484,54.603176
4485,54.603176
4486,54.603176
4487,54.603176
4488,54.603176
4489,54.603176
4490,54.603176
4491,54.603176
4492,54.603176
4493,54.603176
4494,54.627594
4495,54.627594
4496,54.652016
4497,54.652016
4498,54.652016
4499,54.627594
4500,54.627594
4501,54.652016
4502,54.652016
4503,54.676437
4504,54.676437
4505,54.676437
4506,54.700855
4507,54.700855
4508,54.700855
4509,54.700855
4510,54.700855
4511,54.700855
4512,54.700855
4513,54.725277
4514,54.725277
4515,54.774117
4516,54.774117
4517,54.774117
4518,54.798534
4519,54.798534
4520,54.822956
4521,54.822956
4522,54.822956
4523,54.871796
4524,54.871796
4525,54.920635
4526,54.920635
4527,54.969475
4528,54.969475
4529,54.969475
4530,55.018314
4531,55.018314
4532,55.067158
4533,55.067158
4534,55.067158
4535,55.115997
4536,55.115997
4537,55.164837
4538,55.164837
4539,55.189255
4540,55.189255
4541,55.189255
4542,55.189255
4543,55.189255
4544,55.164837
4545,55.164837
4546,55.164837
4547,55.140415
4548,55.140415
4549,55.115997
4550,55.115997
4551,55.091576
4552,55.091576
4553,55.091576
4554,55.042736
4555,55.042736
4556,54.993896
4557,54.993896
4558,54.993896
4559,54.945057
4560,54.945057
4561,54.896217
4562,54.896217
4563,54.847374
4564,54.847374
4565,54.847374
4566,54.798534
4567,54.798534
4568,54.749695
4569,54.749695
4570,54.749695
4571,54.700855
4572,54.700855
4573,54.652016
4574,54.652016
4575,54.603176
4576,54.603176
4577,54.603176
4578,54.554337
4579,54.554337
4580,54.505497
4581,54.505497
4582,54.505497
4583,54.456654
4584,54.456654
4585,54.407814
4586,54.407814
4587,54.334557
4588,54.334557
4589,54.334557
4590,54.285717
4591,54.285717
4592,54.261295
4593,54.261295
4594,54.261295
4595,54.212456
4596,54.212456
4597,54.163616
4598,54.163616
4599,54.139194
4600,54.139194
4601,54.139194
4602,54.139194
4603,54.139194
4604,54.114777
4605,54.114777
4606,54.114777
4607,54.065933
4608,54.065933
4609,54.041515
4610,54.041515
4611,54.065933
4612,54.065933
4613,54.065933
4614,54.090355
4615,54.090355
4616,54.139194
4617,54.139194
4618,54.139194
4619,54.212456
4620,54.212456
4621,54.285717
4622,54.285717
4623,54.407814
4624,54.407814
4625,54.407814
4626,54.554337
4627,54.554337
4628,54.725277
4629,54.725277
4630,54.725277
4631,54.945057
4632,54.945057
4633,55.164837
4634,55.164837
4635,55.384617
4636,55.384617
4637,55.384617
4638,55.604397
4639,55.604397
4640,55.824177
4641,55.824177
4642,55.824177
4643,55.995117
4644,55.995117
4645,56.166058
4646,56.166058
4647,56.312576
4648,56.312576
4649,56.312576
4650,56.434677
4651,56.434677
4652,56.532356
4653,56.532356
4654,56.532356
4655,56.605618
4656,56.605618
4657,56.63004
4658,56.63004
4659,56.654457
4660,56.654457
4661,56.654457
4662,56.654457
4663,56.654457
4664,56.654457
4665,56.654457
4666,56.654457
4667,56.654457
4668,56.654457
4669,56.605618
4670,56.605618
4671,56.50794
4672,56.50794
4673,56.50794
4674,56.361416
4675,56.361416
4676,56.141636
4677,56.141636
4678,56.141636
4679,55.873016
4680,55.873016
4681,55.531136
4682,55.531136
4683,55.164837
4684,55.164837
4685,55.164837
4686,54.798534
4687,54.798534
4688,54.383396
4689,54.383396
4690,54.383396
4691,53.968254
4692,53.968254
4693,53.553116
4694,53.553116
4695,53.162395
4696,53.162395
4697,53.162395
4698,52.796093
4699,52.796093
4700,52.454212
4701,52.454212
4702,52.454212
4703,52.11233
4704,52.11233
4705,51.770454
4706,51.770454
4707,51.477413
4708,51.477413
4709,51.477413
4710,51.23321
4711,51.23321
4712,51.01343
4713,51.01343
4714,51.01343
4715,50.84249
4716,50.84249
4717,50.72039
4718,50.72039
4719,50.67155
4720,50.67155
4721,50.67155
4722,50.67155
4723,50.67155
4724,50.72039
4725,50.72039
4726,50.72039
4727,50.744812
4728,50.744812
4729,50.72039
4730,50.72039
4731,50.695972
4732,50.695972
4733,50.695972
4734,50.598293
4735,50.598293
4736,50.427353
4737,50.427353
4738,50.427353
4739,50.23199
4740,50.23199
4741,49.98779
4742,49.98779
4743,49.69475
4744,49.69475
4745,49.69475
4746,49.40171
4747,49.40171
4748,49.13309
4749,49.13309
4750,49.13309
4751,48.88889
4752,48.88889
4753,48.71795
4754,48.71795
4755,48.69353
4756,48.69353
4757,48.69353
4758,48.76679
4759,48.76679
4760,48.93773
4761,48.93773
4762,48.93773
4763,49.15751
4764,49.15751
4765,49.42613
4766,49.42613
4767,49.69475
4768,49.69475
4769,49.69475
4770,49.96337
4771,49.96337
4772,50.207573
4773,50.207573
4774,50.207573
4775,50.45177
4776,50.45177
4777,50.67155
4778,50.67155
4779,50.89133
4780,50.89133
4781,50.89133
4782,
4783,
4784,51.086693
4785,51.086693
4786,51.086693
4787,51.33089
4788,51.33089
4789,51.62393
4790,51.62393
4791,51.965813
4792,51.965813
4793,51.965813
4794,52.405373
4795,52.405373
4796,52.893772
4797,52.893772
4798,52.893772
4799,53.382175
4800,53.382175
4801,53.797314
4802,53.797314
4803,54.017094
4804,54.017094
4805,54.017094
4806,53.943836
4807,53.943836
4808,53.699635
4809,53.699635
4810,53.699635
4811,53.333336
4812,53.333336
4813,52.893772
4814,52.893772
4815,52.551895
4816,52.551895
4817,52.551895
4818,52.33211
4819,52.33211
4820,52.234432
4821,52.234432
4822,52.234432
4823,52.28327
4824,52.28327
4825,52.454212
4826,52.454212
4827,52.649574
4828,52.649574
4829,52.649574
4830,52.869354
4831,52.869354
4832,53.113552
4833,53.113552
4834,53.113552
4835,53.357754
4836,53.357754
4837,53.601955
4838,53.601955
4839,53.821735
4840,53.821735
4841,53.821735
4842,54.017094
4843,54.017094
4844,54.188034
4845,54.188034
4846,54.188034
4847,54.358974
4848,54.358974
4849,54.505497
4850,54.505497
4851,54.627594
4852,54.627594
4853,54.627594
4854,54.725277
4855,54.725277
4856,54.822956
4857,54.822956
4858,54.822956
4859,55.042736
4860,55.042736
4861,55.140415
4862,55.140415
4863,55.238094
4864,55.238094
4865,55.238094
4866,55.335777
4867,55.335777
4868,55.45788
4869,55.45788
4870,55.45788
4871,55.628815
4872,55.628815
4873,55.775337
4874,55.775337
4875,55.921856
4876,55.921856
4877,55.921856
4878,56.092796
4879,56.092796
4880,56.28816
4881,56.28816
4882,56.28816
4883,56.4591
4884,56.4591
4885,56.605618
4886,56.605618
4887,56.776558
4888,56.776558
4889,56.776558
4890,56.971916
4891,56.971916
4892,57.142857
4893,57.142857
4894,57.142857
4895,57.264957
4896,57.264957
4897,57.362637
4898,57.362637
4899,57.38706
4900,57.38706
4901,57.38706
4902,57.33822
4903,57.33822
4904,57.216118
4905,57.216118
4906,57.216118
4907,56.996338
4908,56.996338
4909,56.654457
4910,56.654457
4911,56.214897
4912,56.214897
4913,56.214897
4914,55.677658
4915,55.677658
4916,55.067158
4917,55.067158
4918,55.067158
4919,54.407814
4920,54.407814
4921,53.699635
4922,53.699635
4923,53.015873
4924,53.015873
4925,53.015873
4926,52.356533
4927,52.356533
4928,51.746033
4929,51.746033
4930,51.746033
4931,51.208794
4932,51.208794
4933,50.72039
4934,50.72039
4935,50.28083
4936,50.28083
4937,50.28083
4938,49.89011
4939,49.89011
4940,49.54823
4941,49.54823
4942,49.54823
4943,49.27961
4944,49.27961
4945,49.05983
4946,49.05983
4947,48.88889
4948,48.88889
4949,48.88889
4950,48.74237
4951,48.74237
4952,48.62027
4953,48.62027
4954,48.62027
4955,48.54701
4956,48.54701
4957,48.47375
4958,48.47375
4959,48.424908
4960,48.424908
4961,48.424908
4962,48.40049
4963,48.40049
4964,48.40049
4965,48.40049
4966,48.40049
4967,48.44933
4968,48.44933
4969,48.49817
4970,48.49817
4971,48.54701
4972,48.54701
4973,48.54701
4974,48.62027
4975,48.62027
4976,48.69353
4977,48.69353
4978,48.69353
4979,48.74237
4980,48.74237
4981,48.79121
4982,48.79121
4983,48.84005
4984,48.84005
4985,48.84005
4986,48.86447
4987,48.86447
4988,48.86447
4989,48.86447
4990,48.86447
4991,48.84005
4992,48.84005
4993,48.76679
4994,48.76679
4995,48.71795
4996,48.71795
4997,48.71795
4998,48.644688
4999,48.644688
5000,48.52259
5001,48.52259
5002,48.52259
5003,48.424908
5004,48.424908
5005,48.30281
5006,48.30281
5007,48.15629
5008,48.15629
5009,48.15629
5010,48.00977
5011,48.00977
5012,47.83883
5013,47.83883
5014,47.83883
5015,47.71673
5016,47.71673
5017,47.643467
5018,47.643467
5019,47.643467
5020,47.643467
5021,47.643467
5022,47.74115
5023,47.74115
5024,48.00977
5025,48.00977
5026,48.00977
5027,48.40049
5028,48.40049
5029,48.91331
5030,48.91331
5031,49.59707
5032,49.59707
5033,49.59707
5034,50.40293
5035,50.40293
5036,51.257633
5037,51.257633
5038,51.257633
5039,52.161175
5040,52.161175
5041,53.040295
5042,53.040295
5043,53.821735
5044,53.821735
5045,53.821735
5046,54.505497
5047,54.505497
5048,55.042736
5049,55.042736
5050,55.042736
5051,55.360195
5052,55.360195
5053,55.482296
5054,55.482296
5055,55.433456
5056,55.433456
5057,55.433456
5058,55.286938
5059,55.286938
5060,55.091576
5061,55.091576
5062,55.091576
5063,54.945057
5064,54.945057
5065,54.847374
5066,54.847374
5067,54.798534
5068,54.798534
5069,54.798534
5070,54.798534
5071,54.798534
5072,54.822956
5073,54.822956
5074,54.822956
5075,54.871796
5076,54.871796
5077,54.896217
5078,54.896217
5079,54.896217
5080,54.896217
5081,54.896217
5082,54.896217
5083,54.896217
5084,54.896217
5085,54.896217
5086,54.896217
5087,54.896217
5088,54.896217
5089,54.896217
5090,54.896217
5091,54.920635
5092,54.920635
5093,54.920635
5094,54.993896
5095,54.993896
5096,55.067158
5097,55.067158
5098,55.067158
5099,55.164837
5100,55.164837
5101,55.238094
5102,55.238094
5103,55.286938
5104,55.286938
5105,55.286938
5106,55.335777
5107,55.335777
5108,55.360195
5109,55.360195
5110,55.360195
5111,55.384617
5112,55.384617
5113,55.360195
5114,55.360195
5115,55.335777
5116,55.335777
5117,55.335777
5118,55.286938
5119,55.286938
5120,55.213676
5121,55.213676
5122,55.213676
5123,55.140415
5124,55.140415
5125,55.042736
5126,55.042736
5127,54.945057
5128,54.945057
5129,54.945057
5130,54.798534
5131,54.798534
5132,54.578754
5133,54.578754
5134,54.578754
5135,54.285717
5136,54.285717
5137,53.846153
5138,53.846153
5139,53.284492
5140,53.284492
5141,53.284492
5142,52.625153
5143,52.625153
5144,51.916973
5145,51.916973
5146,51.916973
5147,51.208794
5148,51.208794
5149,50.598293
5150,50.598293
5151,50.06105
5152,50.06105
5153,50.06105
5154,49.645912
5155,49.645912
5156,49.45055
5157,49.45055
5158,49.45055
5159,49.49939
5160,49.49939
5161,49.71917
5162,49.71917
5163,50.036633
5164,50.036633
5165,50.036633
5166,
5167,
5168,50.45177
5169,50.45177
5170,50.45177
5171,50.818073
5172,50.818073
5173,51.11111
5174,51.11111
5175,51.306473
5176,51.306473
5177,51.306473
5178,51.404152
5179,51.404152
5180,51.477413
5181,51.477413
5182,51.477413
5183,51.55067
5184,51.55067
5185,51.67277
5186,51.67277
5187,51.306473
5188,51.306473
5189,51.306473
5190,50.67155
5191,50.67155
5192,50.35409
5193,50.35409
5194,50.35409
5195,50.18315
5196,50.18315
5197,50.10989
5198,50.10989
5199,50.06105
5200,50.06105
5201,50.06105
5202,50.036633
5203,50.036633
5204,50.036633
5205,50.036633
5206,50.036633
5207,50.036633
5208,50.036633
5209,50.036633
5210,50.036633
5211,50.036633
5212,50.036633
5213,50.036633
5214,50.036633
5215,50.036633
5216,50.036633
5217,50.036633
5218,50.036633
5219,50.036633
5220,50.036633
5221,50.036633
5222,50.036633
5223,50.036633
5224,50.036633
5225,50.036633
5226,50.036633
5227,50.036633
5228,50.036633
5229,50.036633
5230,50.036633
5231,50.036633
5232,50.036633
5233,50.036633
5234,50.036633
5235,50.036633
5236,50.036633
5237,50.036633
5238,50.036633
5239,50.036633
5240,50.036633
5241,50.036633
5242,50.036633
5243,50.036633
5244,50.036633
5245,50.036633
5246,50.036633
5247,50.036633
5248,50.036633
5249,50.036633
5250,50.036633
5251,50.036633
5252,50.036633
5253,50.036633
5254,50.036633
5255,50.036633
5256,50.036633
5257,50.036633
5258,50.036633
5259,50.036633
5260,50.036633
5261,50.036633
5262,50.036633
5263,50.036633
5264,50.036633
5265,50.036633
5266,50.036633
5267,50.036633
5268,50.036633
5269,50.036633
5270,50.036633
5271,50.036633
5272,50.036633
5273,50.036633
5274,50.036633
5275,50.036633
5276,50.036633
5277,50.036633
5278,50.036633
5279,50.036633
5280,50.036633
5281,50.036633
5282,50.036633
5283,50.036633
5284,50.036633
5285,50.036633
5286,50.036633
5287,50.036633
5288,50.036633
5289,50.036633
5290,50.036633
5291,50.036633
5292,50.036633
5293,50.036633
5294,50.036633
5295,50.036633
5296,50.036633
5297,50.036633
5298,50.036633
5299,50.036633
5300,50.036633
5301,50.036633
5302,50.036633
5303,50.036633
5304,50.036633
5305,50.036633
5306,50.036633
5307,50.036633
5308,50.036633
5309,50.036633
5310,50.036633
5311,50.036633
5312,50.036633
5313,50.036633
5314,50.036633
5315,50.036633
5316,50.036633
5317,50.036633
5318,50.036633
5319,50.036633
5320,50.036633
5321,50.036633
5322,50.036633
5323,50.036633
5324,50.036633
5325,50.036633
5326,50.036633
5327,50.036633
5328,50.036633
5329,50.036633
5330,50.036633
5331,50.036633
5332,50.036633
5333,50.036633
5334,50.036633
5335,50.036633
5336,50.036633
5337,50.036633
5338,50.036633
5339,50.036633
5340,50.036633
5341,50.036633
5342,50.036633
5343,50.036633
5344,50.036633
5345,50.036633
5346,50.036633
5347,50.036633
5348,50.036633
5349,50.036633
5350,50.036633
5351,51.257633
5352,51.257633
5353,53.015873
5354,53.015873
5355,53.748474
5356,53.748474
5357,53.748474
5358,53.968254
5359,53.968254
5360,53.943836
5361,53.943836
5362,53.943836
5363,53.821735
5364,53.821735
5365,53.650795
5366,53.650795
5367,53.528694
5368,53.528694
5369,53.528694
5370,53.406593
5371,53.406593
5372,53.308914
5373,53.308914
5374,53.308914
5375,53.211235
5376,53.211235
5377,53.137974
5378,53.137974
5379,53.064713
5380,53.064713
5381,53.064713
5382,53.015873
5383,53.015873
5384,52.991455
5385,52.991455
5386,52.991455
5387,53.015873
5388,53.015873
5389,53.162395
5390,53.162395
5391,53.406593
5392,53.406593
5393,53.406593
5394,53.772896
5395,53.772896
5396,54.236874
5397,54.236874
5398,54.236874
5399,54.725277
5400,54.725277
5401,55.189255
5402,55.189255
5403,55.531136
5404,55.531136
5405,55.531136
5406,55.653236
5407,55.653236
5408,55.555557
5409,55.555557
5410,55.555557
5411,55.286938
5412,55.286938
5413,54.945057
5414,54.945057
5415,53.577534
5416,53.577534
5417,53.577534
5418,51.794872
5419,51.794872
5420,50.915752
5421,50.915752
5422,50.915752
5423,50.476192
5424,50.476192
5425,50.256413
5426,50.256413
5427,50.13431
5428,50.13431
5429,50.13431
5430,50.085472
5431,50.085472
5432,50.06105
5433,50.06105
5434,50.06105
5435,50.036633
5436,50.036633
5437,50.036633
5438,50.036633
5439,50.036633
5440,50.036633
5441,50.036633
5442,50.036633
5443,50.036633
5444,50.036633
5445,50.036633
5446,50.036633
5447,50.036633
5448,50.036633
5449,50.036633
5450,50.036633
5451,50.036633
5452,50.036633
5453,50.036633
5454,50.036633
5455,50.036633
5456,50.036633
5457,50.036633
5458,50.036633
5459,50.036633
5460,50.036633
5461,50.036633
5462,50.036633
5463,50.036633
5464,50.036633
5465,50.036633
5466,50.036633
5467,50.036633
5468,50.036633
5469,50.036633
5470,50.036633
5471,50.036633
5472,50.036633
5473,50.036633
5474,50.036633
5475,50.036633
5476,50.036633
5477,50.036633
5478,50.036633
5479,50.036633
5480,50.036633
5481,50.036633
5482,50.036633
5483,50.036633
5484,50.036633
5485,50.036633
5486,50.036633
5487,50.036633
5488,50.036633
5489,50.036633
5490,50.036633
5491,50.036633
5492,50.036633
5493,50.036633
5494,50.036633
5495,50.036633
5496,50.036633
5497,50.036633
5498,50.036633
5499,50.036633
5500,50.036633
5501,50.036633
5502,50.036633
5503,50.036633
5504,51.379734
5505,51.379734
5506,51.379734
5507,53.431015
5508,53.431015
5509,54.578754
5510,54.578754
5511,55.311356
5512,55.311356
5513,55.311356
5514,55.8486
5515,55.8486
5516,56.28816
5517,56.28816
5518,56.28816
5519,56.67888
5520,56.67888
5521,57.045177
5522,57.045177
5523,57.362637
5524,57.362637
5525,57.362637
5526,57.6801
5527,57.6801
5528,57.97314
5529,57.97314
5530,57.97314
5531,58.26618
5532,58.26618
5533,58.51038
5534,58.51038
5535,58.705738
5536,58.705738
5537,58.705738
5538,58.87668
5539,58.87668
5540,59.0232
5541,59.0232
5542,59.0232
5543,59.09646
5544,59.09646
5545,59.09646
5546,59.09646
5547,59.07204
5548,59.07204
5549,59.07204
5550,58.99878
5551,58.99878
5552,58.85226
5553,58.85226
5554,58.85226
5555,58.705738
5556,58.705738
5557,58.534798
5558,58.534798
5559,58.36386
5560,58.36386
5561,58.36386
5562,58.19292
5563,58.19292
5564,58.02198
5565,58.02198
5566,58.02198
5567,57.85104
5568,57.85104
5569,57.72894
5570,57.72894
5571,57.58242
5572,57.58242
5573,57.58242
5574,57.435898
5575,57.435898
5576,57.313797
5577,57.313797
5578,57.313797
5579,57.216118
5580,57.216118
5581,57.142857
5582,57.142857
5583,57.0696
5584,57.0696
5585,57.0696
5586,56.996338
5587,56.996338
5588,56.89866
5589,56.89866
5590,56.89866
5591,56.825397
5592,56.825397
5593,56.776558
5594,56.776558
5595,56.72772
5596,56.72772
5597,56.72772
5598,56.67888
5599,56.67888
5600,56.605618
5601,56.605618
5602,56.605618
5603,56.532356
5604,56.532356
5605,56.483517
5606,56.483517
5607,56.434677
5608,56.434677
5609,56.434677
5610,56.385838
5611,56.385838
5612,56.336998
5613,56.336998
5614,56.336998
5615,56.28816
5616,56.28816
5617,56.23932
5618,56.23932
5619,56.214897
5620,56.214897
5621,56.214897
5622,56.166058
5623,56.166058
5624,56.092796
5625,56.092796
5626,56.092796
5627,
5628,
5629,56.043957
5630,56.043957
5631,56.019535
5632,56.019535
5633,56.019535
5634,55.970695
5635,55.970695
5636,55.897438
5637,55.897438
5638,55.897438
5639,55.8486
5640,55.8486
5641,55.799755
5642,55.799755
5643,55.726498
5644,55.726498
5645,55.726498
5646,55.628815
5647,55.628815
5648,55.531136
5649,55.531136
5650,55.531136
5651,55.45788
5652,55.45788
5653,55.409035
5654,55.409035
5655,55.335777
5656,55.335777
5657,55.335777
5658,55.238094
5659,55.238094
5660,55.115997
5661,55.115997
5662,55.115997
5663,54.993896
5664,54.993896
5665,54.871796
5666,54.871796
5667,54.749695
5668,54.749695
5669,54.749695
5670,54.603176
5671,54.603176
5672,54.481075
5673,54.481075
5674,54.481075
5675,54.383396
5676,54.383396
5677,54.261295
5678,54.261295
5679,54.114777
5680,54.114777
5681,54.114777
5682,53.992676
5683,53.992676
5684,53.894997
5685,53.894997
5686,53.894997
5687,53.772896
5688,53.772896
5689,53.626373
5690,53.626373
5691,53.504276
5692,53.504276
5693,53.504276
5694,53.406593
5695,53.406593
5696,53.308914
5697,53.308914
5698,53.308914
5699,53.211235
5700,53.211235
5701,53.113552
5702,53.113552
5703,52.918194
5704,52.918194
5705,52.918194
5706,52.844933
5707,52.844933
5708,52.771675
5709,52.771675
5710,52.771675
5711,52.72283
5712,52.72283
5713,52.673992
5714,52.673992
5715,52.625153
5716,52.625153
5717,52.625153
5718,52.625153
5719,52.625153
5720,52.649574
5721,52.649574
5722,52.649574
5723,52.698414
5724,52.698414
5725,52.820515
5726,52.820515
5727,52.991455
5728,52.991455
5729,52.991455
5730,53.186813
5731,53.186813
5732,53.455433
5733,53.455433
5734,53.455433
5735,53.797314
5736,53.797314
5737,54.188034
5738,54.188034
5739,54.603176
5740,54.603176
5741,54.603176
5742,54.993896
5743,54.993896
5744,55.360195
5745,55.360195
5746,55.360195
5747,55.726498
5748,55.726498
5749,56.06838
5750,56.06838
5751,56.385838
5752,56.385838
5753,56.385838
5754,56.703297
5755,56.703297
5756,56.996338
5757,56.996338
5758,56.996338
5759,57.28938
5760,57.28938
5761,57.58242
5762,57.58242
5763,57.85104
5764,57.85104
5765,57.85104
5766,58.095238
5767,58.095238
5768,58.33944
5769,58.33944
5770,58.33944
5771,58.58364
5772,58.58364
5773,58.779
5774,58.779
5775,58.94994
5776,58.94994
5777,58.94994
5778,59.12088
5779,59.12088
5780,59.29182
5781,59.29182
5782,59.29182
5783,59.41392
5784,59.41392
5785,59.56044
5786,59.56044
5787,59.706963
5788,59.706963
5789,59.706963
5790,59.80464
5791,59.80464
5792,59.85348
5793,59.85348
5794,59.85348
5795,59.90232
5796,59.90232
5797,59.926743
5798,59.926743
5799,59.8779
5800,59.8779
5801,59.8779
5802,59.80464
5803,59.80464
5804,59.73138
5805,59.73138
5806,59.73138
5807,59.6337
5808,59.6337
5809,59.536022
5810,59.536022
5811,59.43834
5812,59.43834
5813,59.43834
5814,59.34066
5815,59.34066
5816,59.24298
5817,59.24298
5818,59.24298
5819,59.1453
5820,59.1453
5821,59.07204
5822,59.07204
5823,59.0232
5824,59.0232
5825,59.0232
5826,58.97436
5827,58.97436
5828,58.94994
5829,58.94994
5830,58.94994
5831,58.94994
5832,58.94994
5833,58.99878
5834,58.99878
5835,59.12088
5836,59.12088
5837,59.12088
5838,59.31624
5839,59.31624
5840,59.536022
5841,59.536022
5842,59.536022
5843,59.755802
5844,59.755802
5845,60.0
5846,60.0
5847,60.2442
5848,60.2442
5849,60.2442
5850,60.46398
5851,60.46398
5852,60.634922
5853,60.634922
5854,60.634922
5855,60.78144
5856,60.78144
5857,60.90354
5858,60.90354
5859,60.976803
5860,60.976803
5861,60.976803
5862,61.025642
5863,61.025642
5864,61.05006
5865,61.05006
5866,61.05006
5867,61.05006
5868,61.05006
5869,61.05006
5870,61.05006
5871,61.05006
5872,61.05006
5873,61.05006
5874,61.025642
5875,61.025642
5876,60.976803
5877,60.976803
5878,60.976803
5879,60.879124
5880,60.879124
5881,60.7326
5882,60.7326
5883,60.537243
5884,60.537243
5885,60.537243
5886,60.29304
5887,60.29304
5888,60.0
5889,60.0
5890,60.0
5891,59.65812
5892,59.65812
5893,59.31624
5894,59.31624
5895,59.0232
5896,59.0232
5897,59.0232
5898,58.80342
5899,58.80342
5900,58.6569
5901,58.6569
5902,58.6569
5903,58.58364
5904,58.58364
5905,58.534798
5906,58.534798
5907,58.48596
5908,58.48596
5909,58.48596
5910,58.43712
5911,58.43712
5912,58.36386
5913,58.36386
5914,58.36386
5915,58.24176
5916,58.24176
5917,58.095238
5918,58.095238
5919,57.924297
5920,57.924297
5921,57.924297
5922,57.704517
5923,57.704517
5924,57.50916
5925,57.50916
5926,57.50916
5927,57.362637
5928,57.362637
5929,57.24054
5930,57.24054
5931,57.16728
5932,57.16728
5933,57.16728
5934,57.16728
5935,57.16728
5936,57.1917
5937,57.1917
5938,57.1917
5939,57.24054
5940,57.24054
5941,57.313797
5942,57.313797
5943,57.41148
5944,57.41148
5945,57.41148
5946,57.46032
5947,57.46032
5948,57.46032
5949,57.46032
5950,57.46032
5951,57.435898
5952,57.435898
5953,57.362637
5954,57.362637
5955,57.264957
5956,57.264957
5957,57.264957
5958,57.142857
5959,57.142857
5960,57.02076
5961,57.02076
5962,57.02076
5963,56.9475
5964,56.9475
5965,56.923077
5966,56.923077
5967,56.971916
5968,56.971916
5969,56.971916
5970,57.094017
5971,57.094017
5972,57.264957
5973,57.264957
5974,57.264957
5975,57.50916
5976,57.50916
5977,57.8022
5978,57.8022
5979,58.11966
5980,58.11966
5981,58.11966
5982,58.43712
5983,58.43712
5984,58.75458
5985,58.75458
5986,58.75458
5987,59.04762
5988,59.04762
5989,59.34066
5990,59.34066
5991,59.58486
5992,59.58486
5993,59.58486
5994,59.78022
5995,59.78022
5996,59.95116
5997,59.95116
5998,59.95116
5999,60.097683
6000,60.097683
6001,60.21978
6002,60.21978
6003,60.317463
6004,60.317463
6005,60.317463
6006,60.415142
6007,60.415142
6008,60.51282
6009,60.51282
6010,60.51282
6011,60.6105
6012,60.6105
6013,60.708183
6014,60.708183
6015,60.805862
6016,60.805862
6017,60.805862
6018,60.90354
6019,60.90354
6020,60.976803
6021,60.976803
6022,60.976803
6023,61.025642
6024,61.025642
6025,61.05006
6026,61.05006
6027,61.05006
6028,61.05006
6029,61.05006
6030,61.025642
6031,61.025642
6032,60.976803
6033,60.976803
6034,60.976803
6035,60.879124
6036,60.879124
6037,60.757023
6038,60.757023
6039,60.6105
6040,60.6105
6041,60.6105
6042,60.415142
6043,60.415142
6044,60.195362
6045,60.195362
6046,60.195362
6047,59.975582
6048,59.975582
6049,59.706963
6050,59.706963
6051,59.41392
6052,59.41392
6053,59.41392
6054,59.07204
6055,59.07204
6056,58.73016
6057,58.73016
6058,58.73016
6059,58.38828
6060,58.38828
6061,58.02198
6062,58.02198
6063,57.655678
6064,57.655678
6065,57.655678
6066,57.33822
6067,57.33822
6068,57.02076
6069,57.02076
6070,57.02076
6071,56.776558
6072,56.776558
6073,56.581196
6074,56.581196
6075,56.41026
6076,56.41026
6077,56.41026
6078,56.263737
6079,56.263737
6080,56.166058
6081,56.166058
6082,56.166058
6083,56.117218
6084,56.117218
6085,56.117218
6086,56.117218
6087,
6088,
6089,
6090,56.117218
6091,56.117218
6092,56.092796
6093,56.092796
6094,56.092796
6095,56.092796
6096,56.092796
6097,56.092796
6098,56.092796
6099,56.092796
6100,56.092796
6101,56.092796
6102,56.092796
6103,56.092796
6104,56.06838
6105,56.06838
6106,56.06838
6107,56.019535
6108,56.019535
6109,55.970695
6110,55.970695
6111,55.897438
6112,55.897438
6113,55.897438
6114,55.824177
6115,55.824177
6116,55.726498
6117,55.726498
6118,55.726498
6119,55.628815
6120,55.628815
6121,55.506718
6122,55.506718
6123,55.384617
6124,55.384617
6125,55.384617
6126,55.238094
6127,55.238094
6128,55.067158
6129,55.067158
6130,55.067158
6131,54.896217
6132,54.896217
6133,54.700855
6134,54.700855
6135,54.481075
6136,54.481075
6137,54.481075
6138,54.212456
6139,54.212456
6140,53.870575
6141,53.870575
6142,53.870575
6143,53.504276
6144,53.504276
6145,53.113552
6146,53.113552
6147,52.698414
6148,52.698414
6149,52.698414
6150,52.28327
6151,52.28327
6152,51.916973
6153,51.916973
6154,51.916973
6155,51.599514
6156,51.599514
6157,51.355312
6158,51.355312
6159,51.184372
6160,51.184372
6161,51.184372
6162,51.06227
6163,51.06227
6164,50.915752
6165,50.915752
6166,50.915752
6167,50.818073
6168,50.818073
6169,50.695972
6170,50.695972
6171,50.525032
6172,50.525032
6173,50.525032
6174,50.32967
6175,50.32967
6176,50.10989
6177,50.10989
6178,50.10989
6179,49.865692
6180,49.865692
6181,49.62149
6182,49.62149
6183,49.35287
6184,49.35287
6185,49.35287
6186,49.10867
6187,49.10867
6188,48.86447
6189,48.86447
6190,48.86447
6191,48.62027
6192,48.62027
6193,48.37607
6194,48.37607
6195,48.13187
6196,48.13187
6197,48.13187
6198,47.91209
6199,47.91209
6200,47.74115
6201,47.74115
6202,47.74115
6203,47.69231
6204,47.69231
6205,47.78999
6206,47.78999
6207,47.985348
6208,47.985348
6209,47.985348
6210,48.22955
6211,48.22955
6212,48.57143
6213,48.57143
6214,48.57143
6215,48.96215
6216,48.96215
6217,49.35287
6218,49.35287
6219,49.71917
6220,49.71917
6221,49.71917
6222,50.01221
6223,50.01221
6224,50.23199
6225,50.23199
6226,50.23199
6227,50.40293
6228,50.40293
6229,50.50061
6230,50.50061
6231,50.54945
6232,50.54945
6233,50.54945
6234,50.57387
6235,50.57387
6236,50.62271
6237,50.62271
6238,50.62271
6239,50.695972
6240,50.695972
6241,50.79365
6242,50.79365
6243,50.964592
6244,50.964592
6245,50.964592
6246,51.208794
6247,51.208794
6248,51.45299
6249,51.45299
6250,51.45299
6251,51.697193
6252,51.697193
6253,51.965813
6254,51.965813
6255,52.234432
6256,52.234432
6257,52.234432
6258,52.50305
6259,52.50305
6260,52.869354
6261,52.869354
6262,52.869354
6263,53.113552
6264,53.113552
6265,53.357754
6266,53.357754
6267,53.846153
6268,53.846153
6269,53.846153
6270,54.114777
6271,54.114777
6272,54.358974
6273,54.358974
6274,54.358974
6275,54.774117
6276,54.774117
6277,54.945057
6278,54.945057
6279,55.067158
6280,55.067158
6281,55.067158
6282,55.213676
6283,55.213676
6284,55.213676
6285,55.213676
6286,55.213676
6287,55.189255
6288,55.189255
6289,55.115997
6290,55.115997
6291,55.042736
6292,55.042736
6293,55.042736
6294,54.969475
6295,54.969475
6296,54.920635
6297,54.920635
6298,54.920635
6299,54.847374
6300,54.847374
6301,54.774117
6302,54.774117
6303,54.749695
6304,54.749695
6305,54.749695
6306,54.749695
6307,54.749695
6308,54.774117
6309,54.774117
6310,54.774117
6311,54.798534
6312,54.798534
6313,54.822956
6314,54.822956
6315,54.896217
6316,54.896217
6317,54.896217
6318,54.945057
6319,54.945057
6320,54.945057
6321,54.945057
6322,54.945057
6323,54.896217
6324,54.896217
6325,54.798534
6326,54.798534
6327,54.652016
6328,54.652016
6329,54.652016
6330,54.456654
6331,54.456654
6332,54.212456
6333,54.212456
6334,54.212456
6335,53.943836
6336,53.943836
6337,53.699635
6338,53.699635
6339,53.455433
6340,53.455433
6341,53.455433
6342,53.186813
6343,53.186813
6344,52.918194
6345,52.918194
6346,52.918194
6347,52.673992
6348,52.673992
6349,52.454212
6350,52.454212
6351,52.258854
6352,52.258854
6353,52.258854
6354,52.06349
6355,52.06349
6356,51.916973
6357,51.916973
6358,51.916973
6359,51.819294
6360,51.819294
6361,51.746033
6362,51.746033
6363,51.72161
6364,51.72161
6365,51.72161
6366,51.67277
6367,51.67277
6368,51.62393
6369,51.62393
6370,51.62393
6371,51.599514
6372,51.599514
6373,51.575092
6374,51.575092
6375,51.50183
6376,51.50183
6377,51.50183
6378,51.45299
6379,51.45299
6380,51.428574
6381,51.428574
6382,51.428574
6383,51.428574
6384,51.428574
6385,51.526253
6386,51.526253
6387,51.697193
6388,51.697193
6389,51.697193
6390,51.916973
6391,51.916973
6392,52.136753
6393,52.136753
6394,52.136753
6395,52.356533
6396,52.356533
6397,52.527473
6398,52.527473
6399,52.649574
6400,52.649574
6401,52.649574
6402,52.673992
6403,52.673992
6404,52.625153
6405,52.625153
6406,52.625153
6407,52.454212
6408,52.454212
6409,52.185593
6410,52.185593
6411,51.89255
6412,51.89255
6413,51.89255
6414,51.55067
6415,51.55067
6416,51.15995
6417,51.15995
6418,51.15995
6419,50.72039
6420,50.72039
6421,50.23199
6422,50.23199
6423,49.74359
6424,49.74359
6425,49.74359
6426,49.32845
6427,49.32845
6428,48.96215
6429,48.96215
6430,48.96215
6431,48.71795
6432,48.71795
6433,48.62027
6434,48.62027
6435,48.66911
6436,48.66911
6437,48.66911
6438,48.84005
6439,48.84005
6440,49.08425
6441,49.08425
6442,49.08425
6443,49.42613
6444,49.42613
6445,49.84127
6446,49.84127
6447,50.305252
6448,50.305252
6449,50.305252
6450,50.744812
6451,50.744812
6452,51.184372
6453,51.184372
6454,51.184372
6455,51.62393
6456,51.62393
6457,52.039074
6458,52.039074
6459,52.454212
6460,52.454212
6461,52.454212
6462,52.820515
6463,52.820515
6464,53.137974
6465,53.137974
6466,53.137974
6467,53.382175
6468,53.382175
6469,53.601955
6470,53.601955
6471,
6472,
6473,
6474,53.797314
6475,53.797314
6476,53.943836
6477,53.943836
6478,53.943836
6479,54.090355
6480,54.090355
6481,54.236874
6482,54.236874
6483,54.383396
6484,54.383396
6485,54.383396
6486,54.529915
6487,54.529915
6488,54.676437
6489,54.676437
6490,54.676437
6491,54.798534
6492,54.798534
6493,54.847374
6494,54.847374
6495,54.822956
6496,54.822956
6497,54.822956
6498,54.700855
6499,54.700855
6500,54.456654
6501,54.456654
6502,54.456654
6503,54.139194
6504,54.139194
6505,53.772896
6506,53.772896
6507,53.308914
6508,53.308914
6509,53.308914
6510,52.796093
6511,52.796093
6512,52.258854
6513,52.258854
6514,52.258854
6515,51.72161
6516,51.72161
6517,51.184372
6518,51.184372
6519,50.67155
6520,50.67155
6521,50.67155
6522,50.207573
6523,50.207573
6524,49.79243
6525,49.79243
6526,49.79243
6527,49.45055
6528,49.45055
6529,49.18193
6530,49.18193
6531,49.01099
6532,49.01099
6533,49.01099
6534,48.96215
6535,48.96215
6536,48.98657
6537,48.98657
6538,48.98657
6539,49.05983
6540,49.05983
6541,49.15751
6542,49.15751
6543,49.20635
6544,49.20635
6545,49.20635
6546,49.25519
6547,49.25519
6548,49.30403
6549,49.30403
6550,49.30403
6551,49.32845
6552,49.32845
6553,49.32845
6554,49.32845
6555,49.35287
6556,49.35287
6557,49.35287
6558,49.42613
6559,49.42613
6560,49.49939
6561,49.49939
6562,49.49939
6563,49.59707
6564,49.59707
6565,49.69475
6566,49.69475
6567,49.76801
6568,49.76801
6569,49.76801
6570,49.79243
6571,49.79243
6572,49.79243
6573,49.79243
6574,49.79243
6575,49.76801
6576,49.76801
6577,49.71917
6578,49.71917
6579,49.645912
6580,49.645912
6581,49.645912
6582,49.57265
6583,49.57265
6584,49.47497
6585,49.47497
6586,49.47497
6587,49.35287
6588,49.35287
6589,49.20635
6590,49.20635
6591,49.01099
6592,49.01099
6593,49.01099
6594,48.79121
6595,48.79121
6596,48.54701
6597,48.54701
6598,48.54701
6599,48.27839
6600,48.27839
6601,48.00977
6602,48.00977
6603,47.74115
6604,47.74115
6605,47.74115
6606,47.52137
6607,47.52137
6608,47.326008
6609,47.326008
6610,47.326008
6611,47.17949
6612,47.17949
6613,47.05739
6614,47.05739
6615,46.935287
6616,46.935287
6617,46.935287
6618,46.78877
6619,46.78877
6620,46.666668
6621,46.666668
6622,46.666668
6623,46.56899
6624,46.56899
6625,46.34921
6626,46.34921
6627,46.202686
6628,46.202686
6629,46.202686
6630,46.056168
6631,46.056168
6632,45.909645
6633,45.909645
6634,45.909645
6635,45.763126
6636,45.763126
6637,45.56777
6638,45.56777
6639,45.347984
6640,45.347984
6641,45.347984
6642,45.128204
6643,45.128204
6644,44.859585
6645,44.859585
6646,44.859585
6647,44.566544
6648,44.566544
6649,44.249084
6650,44.249084
6651,43.931625
6652,43.931625
6653,43.931625
6654,43.638584
6655,43.638584
6656,43.394382
6657,43.394382
6658,43.394382
6659,43.223442
6660,43.223442
6661,43.150185
6662,43.150185
6663,43.247864
6664,43.247864
6665,43.247864
6666,43.540905
6667,43.540905
6668,44.004887
6669,44.004887
6670,44.004887
6671,44.590965
6672,44.590965
6673,45.347984
6674,45.347984
6675,46.275948
6676,46.275948
6677,46.275948
6678,47.30159
6679,47.30159
6680,48.37607
6681,48.37607
6682,48.37607
6683,49.49939
6684,49.49939
6685,50.62271
6686,50.62271
6687,51.72161
6688,51.72161
6689,51.72161
6690,52.771675
6691,52.771675
6692,53.748474
6693,53.748474
6694,53.748474
6695,54.578754
6696,54.578754
6697,55.286938
6698,55.286938
6699,55.8486
6700,55.8486
6701,55.8486
6702,56.214897
6703,56.214897
6704,56.28816
6705,56.28816
6706,56.28816
6707,56.141636
6708,56.141636
6709,55.8486
6710,55.8486
6711,55.45788
6712,55.45788
6713,55.45788
6714,55.091576
6715,55.091576
6716,54.774117
6717,54.774117
6718,54.774117
6719,54.578754
6720,54.578754
6721,54.554337
6722,54.554337
6723,54.627594
6724,54.627594
6725,54.627594
6726,54.798534
6727,54.798534
6728,54.969475
6729,54.969475
6730,54.969475
6731,55.115997
6732,55.115997
6733,55.189255
6734,55.189255
6735,55.189255
6736,55.189255
6737,55.189255
6738,55.140415
6739,55.140415
6740,55.018314
6741,55.018314
6742,55.018314
6743,54.871796
6744,54.871796
6745,54.700855
6746,54.700855
6747,54.481075
6748,54.481075
6749,54.481075
6750,54.212456
6751,54.212456
6752,53.846153
6753,53.846153
6754,53.846153
6755,53.455433
6756,53.455433
6757,53.015873
6758,53.015873
6759,52.50305
6760,52.50305
6761,52.50305
6762,51.916973
6763,51.916973
6764,51.28205
6765,51.28205
6766,51.28205
6767,50.647133
6768,50.647133
6769,50.01221
6770,50.01221
6771,49.37729
6772,49.37729
6773,49.37729
6774,48.79121
6775,48.79121
6776,48.27839
6777,48.27839
6778,48.27839
6779,47.83883
6780,47.83883
6781,47.44811
6782,47.44811
6783,47.106228
6784,47.106228
6785,47.106228
6786,46.813187
6787,46.813187
6788,46.56899
6789,46.56899
6790,46.56899
6791,46.34921
6792,46.34921
6793,46.153847
6794,46.153847
6795,46.031746
6796,46.031746
6797,46.031746
6798,45.982906
6799,45.982906
6800,45.95849
6801,45.95849
6802,45.95849
6803,45.95849
6804,45.95849
6805,45.982906
6806,45.982906
6807,45.982906
6808,45.982906
6809,45.982906
6810,45.909645
6811,45.909645
6812,45.763126
6813,45.763126
6814,45.763126
6815,45.592186
6816,45.592186
6817,45.396828
6818,45.396828
6819,45.152626
6820,45.152626
6821,45.152626
6822,44.908424
6823,44.908424
6824,44.664227
6825,44.664227
6826,44.664227
6827,44.395607
6828,44.395607
6829,44.078144
6830,44.078144
6831,43.760685
6832,43.760685
6833,43.760685
6834,43.443226
6835,43.443226
6836,43.150185
6837,43.150185
6838,43.150185
6839,42.881565
6840,42.881565
6841,42.661785
6842,42.661785
6843,42.515263
6844,42.515263
6845,42.515263
6846,42.417583
6847,42.417583
6848,42.368744
6849,42.368744
6850,42.368744
6851,42.344322
6852,42.344322
6853,42.295483
6854,42.295483
6855,42.246643
6856,42.246643
6857,42.246643
6858,42.197803
6859,42.197803
6860,42.124542
6861,42.124542
6862,42.124542
6863,42.075703
6864,42.075703
6865,42.026863
6866,42.026863
6867,41.978024
6868,41.978024
6869,41.978024
6870,41.929184
6871,41.929184
6872,41.880344
6873,41.880344
6874,41.880344
6875,41.8315
6876,41.8315
6877,41.78266
6878,41.78266
6879,41.73382
6880,41.73382
6881,41.73382
6882,41.684982
6883,41.684982
6884,41.66056
6885,41.66056
6886,41.66056
6887,41.66056
6888,41.66056
6889,41.709404
6890,41.709404
6891,41.8315
6892,41.8315
6893,41.8315
6894,42.075703
6895,42.075703
6896,42.442
6897,42.442
6898,42.442
6899,42.881565
6900,42.881565
6901,43.394382
6902,43.394382
6903,44.004887
6904,44.004887
6905,44.004887
6906,44.639805
6907,44.639805
6908,45.274727
6909,45.274727
6910,45.274727
6911,45.885227
6912,45.885227
6913,46.471306
6914,46.471306
6915,46.984127
6916,46.984127
6917,46.984127
6918,47.423687
6919,47.423687
6920,47.814407
6921,47.814407
6922,47.814407
6923,48.13187
6924,48.13187
6925,48.37607
6926,48.37607
6927,48.57143
6928,48.57143
6929,48.57143
6930,48.76679
6931,48.76679
6932,
6933,
6934,
6935,48.98657
6936,48.98657
6937,49.25519
6938,49.25519
6939,49.57265
6940,49.57265
6941,49.57265
6942,49.91453
6943,49.91453
6944,50.305252
6945,50.305252
6946,50.305252
6947,50.695972
6948,50.695972
6949,51.086693
6950,51.086693
6951,51.45299
6952,51.45299
6953,51.45299
6954,51.794872
6955,51.794872
6956,52.06349
6957,52.06349
6958,52.06349
6959,52.234432
6960,52.234432
6961,52.356533
6962,52.356533
6963,52.380955
6964,52.380955
6965,52.380955
6966,52.33211
6967,52.33211
6968,52.234432
6969,52.234432
6970,52.234432
6971,52.087914
6972,52.087914
6973,51.89255
6974,51.89255
6975,51.648354
6976,51.648354
6977,51.648354
6978,51.355312
6979,51.355312
6980,51.037853
6981,51.037853
6982,51.037853
6983,50.695972
6984,50.695972
6985,50.35409
6986,50.35409
6987,49.98779
6988,49.98779
6989,49.98779
6990,49.645912
6991,49.645912
6992,49.30403
6993,49.30403
6994,49.30403
6995,48.93773
6996,48.93773
6997,48.57143
6998,48.57143
6999,48.22955
7000,48.22955
7001,48.22955
7002,47.91209
7003,47.91209
7004,47.61905
7005,47.61905
7006,47.61905
7007,47.35043
7008,47.35043
7009,46.91087
7010,46.91087
7011,46.73993
7012,46.73993
7013,46.73993
7014,46.56899
7015,46.56899
7016,46.39805
7017,46.39805
7018,46.39805
7019,46.202686
7020,46.202686
7021,46.007328
7022,46.007328
7023,45.787548
7024,45.787548
7025,45.787548
7026,45.543346
7027,45.543346
7028,45.299145
7029,45.299145
7030,45.299145
7031,45.054947
7032,45.054947
7033,44.810745
7034,44.810745
7035,44.590965
7036,44.590965
7037,44.590965
7038,44.371185
7039,44.371185
7040,44.175823
7041,44.175823
7042,44.175823
7043,43.980465
7044,43.980465
7045,43.809525
7046,43.809525
7047,43.663006
7048,43.663006
7049,43.663006
7050,43.540905
7051,43.540905
7052,43.443226
7053,43.443226
7054,43.443226
7055,43.369965
7056,43.369965
7057,43.321125
7058,43.321125
7059,43.321125
7060,43.321125
7061,43.321125
7062,43.369965
7063,43.369965
7064,43.443226
7065,43.443226
7066,43.443226
7067,43.540905
7068,43.540905
7069,43.663006
7070,43.663006
7071,43.785103
7072,43.785103
7073,43.785103
7074,43.907204
7075,43.907204
7076,43.980465
7077,43.980465
7078,43.980465
7079,44.029305
7080,44.029305
7081,44.053726
7082,44.053726
7083,44.053726
7084,44.053726
7085,44.053726
7086,44.053726
7087,44.053726
7088,44.004887
7089,44.004887
7090,44.004887
7091,43.907204
7092,43.907204
7093,43.809525
7094,43.809525
7095,43.687424
7096,43.687424
7097,43.687424
7098,43.540905
7099,43.540905
7100,43.369965
7101,43.369965
7102,43.369965
7103,43.150185
7104,43.150185
7105,42.954823
7106,42.954823
7107,42.83272
7108,42.83272
7109,42.83272
7110,42.735043
7111,42.735043
7112,42.710625
7113,42.710625
7114,42.710625
7115,42.83272
7116,42.83272
7117,43.101345
7118,43.101345
7119,43.516483
7120,43.516483
7121,43.516483
7122,44.029305
7123,44.029305
7124,44.664227
7125,44.664227
7126,44.664227
7127,45.323566
7128,45.323566
7129,45.982906
7130,45.982906
7131,46.642246
7132,46.642246
7133,46.642246
7134,47.252747
7135,47.252747
7136,47.83883
7137,47.83883
7138,47.83883
7139,48.35165
7140,48.35165
7141,48.76679
7142,48.76679
7143,49.15751
7144,49.15751
7145,49.15751
7146,49.49939
7147,49.49939
7148,49.79243
7149,49.79243
7150,49.79243
7151,50.06105
7152,50.06105
7153,50.305252
7154,50.305252
7155,50.57387
7156,50.57387
7157,50.57387
7158,50.84249
7159,50.84249
7160,51.086693
7161,51.086693
7162,51.086693
7163,51.355312
7164,51.355312
7165,51.648354
7166,51.648354
7167,51.916973
7168,51.916973
7169,51.916973
7170,52.136753
7171,52.136753
7172,52.380955
7173,52.380955
7174,52.380955
7175,52.600735
7176,52.600735
7177,52.771675
7178,52.771675
7179,52.967033
7180,52.967033
7181,52.967033
7182,53.137974
7183,53.137974
7184,53.235653
7185,53.235653
7186,53.235653
7187,53.284492
7188,53.284492
7189,53.284492
7190,53.284492
7191,53.235653
7192,53.235653
7193,53.235653
7194,53.137974
7195,53.137974
7196,52.991455
7197,52.991455
7198,52.991455
7199,52.796093
7200,52.796093
7201,52.551895
7202,52.551895
7203,52.28327
7204,52.28327
7205,52.28327
7206,52.039074
7207,52.039074
7208,51.819294
7209,51.819294
7210,51.819294
7211,51.575092
7212,51.575092
7213,51.33089
7214,51.33089
7215,51.11111
7216,51.11111
7217,51.11111
7218,50.94017
7219,50.94017
7220,50.76923
7221,50.76923
7222,50.76923
7223,50.62271
7224,50.62271
7225,50.50061
7226,50.50061
7227,50.37851
7228,50.37851
7229,50.37851
7230,50.28083
7231,50.28083
7232,50.18315
7233,50.18315
7234,50.18315
7235,50.06105
7236,50.06105
7237,49.91453
7238,49.91453
7239,49.79243
7240,49.79243
7241,49.79243
7242,49.67033
7243,49.67033
7244,49.49939
7245,49.49939
7246,49.49939
7247,49.32845
7248,49.32845
7249,49.10867
7250,49.10867
7251,48.86447
7252,48.86447
7253,48.86447
7254,48.62027
7255,48.62027
7256,48.37607
7257,48.37607
7258,48.37607
7259,48.10745
7260,48.10745
7261,47.814407
7262,47.814407
7263,47.545788
7264,47.545788
7265,47.545788
7266,47.30159
7267,47.30159
7268,47.081806
7269,47.081806
7270,47.081806
7271,46.886448
7272,46.886448
7273,46.691086
7274,46.691086
7275,46.520145
7276,46.520145
7277,46.520145
7278,46.373627
7279,46.373627
7280,46.202686
7281,46.202686
7282,46.202686
7283,46.031746
7284,46.031746
7285,45.909645
7286,45.909645
7287,45.787548
7288,45.787548
7289,45.787548
7290,45.689865
7291,45.689865
7292,45.592186
7293,45.592186
7294,45.592186
7295,45.494507
7296,45.494507
7297,45.396828
7298,45.396828
7299,45.299145
7300,45.299145
7301,45.299145
7302,45.201466
7303,45.201466
7304,45.103786
7305,45.103786
7306,45.103786
7307,45.006107
7308,45.006107
7309,44.908424
7310,44.908424
7311,44.810745
7312,44.810745
7313,44.810745
7314,44.713066
7315,44.713066
7316,44.615387
7317,44.615387
7318,44.615387
7319,44.517704
7320,44.517704
7321,44.444447
7322,44.444447
7323,44.346764
7324,44.346764
7325,44.346764
7326,44.224667
7327,44.224667
7328,44.126984
7329,44.126984
7330,44.126984
7331,44.029305
7332,44.029305
7333,43.956043
7334,43.956043
7335,43.931625
7336,43.931625
7337,43.931625
7338,44.029305
7339,44.029305
7340,44.224667
7341,44.224667
7342,44.224667
7343,44.542126
7344,44.542126
7345,44.981686
7346,44.981686
7347,45.543346
7348,45.543346
7349,45.543346
7350,46.202686
7351,46.202686
7352,46.886448
7353,46.886448
7354,46.886448
7355,47.61905
7356,47.61905
7357,48.32723
7358,48.32723
7359,49.01099
7360,49.01099
7361,49.01099
7362,49.645912
7363,49.645912
7364,50.207573
7365,50.207573
7366,50.207573
7367,50.67155
7368,50.67155
7369,51.086693
7370,51.086693
7371,51.477413
7372,51.477413
7373,51.477413
7374,51.84371
7375,51.84371
7376,52.210014
7377,52.210014
7378,52.210014
7379,52.551895
7380,52.551895
7381,52.893772
7382,52.893772
7383,53.235653
7384,53.235653
7385,53.235653
7386,53.553116
7387,53.553116
7388,53.870575
7389,53.870575
7390,53.870575
7391,54.163616
7392,54.163616
7393,
7394,
7395,54.456654
7396,54.456654
7397,54.456654
7398,54.725277
7399,54.725277
7400,54.945057
7401,54.945057
7402,54.945057
7403,55.115997
7404,55.115997
7405,55.286938
7406,55.286938
7407,55.384617
7408,55.384617
7409,55.384617
7410,55.433456
7411,55.433456
7412,55.45788
7413,55.45788
7414,55.45788
7415,55.45788
7416,55.45788
7417,55.360195
7418,55.360195
7419,55.189255
7420,55.189255
7421,55.189255
7422,54.969475
7423,54.969475
7424,54.725277
7425,54.725277
7426,54.725277
7427,54.432236
7428,54.432236
7429,54.114777
7430,54.114777
7431,53.797314
7432,53.797314
7433,53.797314
7434,53.528694
7435,53.528694
7436,53.260075
7437,53.260075
7438,53.260075
7439,53.040295
7440,53.040295
7441,52.844933
7442,52.844933
7443,52.673992
7444,52.673992
7445,52.673992
7446,52.551895
7447,52.551895
7448,52.454212
7449,52.454212
7450,52.454212
7451,52.380955
7452,52.380955
7453,52.307693
7454,52.307693
7455,52.210014
7456,52.210014
7457,52.210014
7458,52.11233
7459,52.11233
7460,52.014652
7461,52.014652
7462,52.014652
7463,51.916973
7464,51.916973
7465,51.794872
7466,51.794872
7467,51.648354
7468,51.648354
7469,51.648354
7470,51.28205
7471,51.28205
7472,51.086693
7473,51.086693
7474,51.086693
7475,50.89133
7476,50.89133
7477,50.695972
7478,50.695972
7479,50.525032
7480,50.525032
7481,50.525032
7482,50.37851
7483,50.37851
7484,50.23199
7485,50.23199
7486,50.23199
7487,50.085472
7488,50.085472
7489,49.91453
7490,49.91453
7491,49.74359
7492,49.74359
7493,49.74359
7494,49.59707
7495,49.59707
7496,49.42613
7497,49.42613
7498,49.42613
7499,49.25519
7500,49.25519
7501,49.13309
7502,49.13309
7503,48.98657
7504,48.98657
7505,48.98657
7506,48.84005
7507,48.84005
7508,48.71795
7509,48.71795
7510,48.71795
7511,48.595848
7512,48.595848
7513,48.424908
7514,48.424908
7515,48.253967
7516,48.253967
7517,48.253967
7518,48.05861
7519,48.05861
7520,47.83883
7521,47.83883
7522,47.83883
7523,47.61905
7524,47.61905
7525,47.39927
7526,47.39927
7527,47.203907
7528,47.203907
7529,47.203907
7530,46.984127
7531,46.984127
7532,46.73993
7533,46.73993
7534,46.73993
7535,46.520145
7536,46.520145
7537,46.300365
7538,46.300365
7539,46.031746
7540,46.031746
7541,46.031746
7542,45.787548
7543,45.787548
7544,45.56777
7545,45.56777
7546,45.56777
7547,45.323566
7548,45.323566
7549,45.079365
7550,45.079365
7551,44.835167
7552,44.835167
7553,44.835167
7554,44.590965
7555,44.590965
7556,44.346764
7557,44.346764
7558,44.346764
7559,44.126984
7560,44.126984
7561,43.956043
7562,43.956043
7563,43.809525
7564,43.809525
7565,43.809525
7566,43.760685
7567,43.760685
7568,43.833946
7569,43.833946
7570,43.833946
7571,44.053726
7572,44.053726
7573,44.395607
7574,44.395607
7575,44.908424
7576,44.908424
7577,44.908424
7578,45.592186
7579,45.592186
7580,46.373627
7581,46.373627
7582,46.373627
7583,47.203907
7584,47.203907
7585,48.034187
7586,48.034187
7587,48.815628
7588,48.815628
7589,48.815628
7590,49.57265
7591,49.57265
7592,50.256413
7593,50.256413
7594,50.256413
7595,50.84249
7596,50.84249
7597,51.355312
7598,51.355312
7599,51.84371
7600,51.84371
7601,51.84371
7602,52.28327
7603,52.28327
7604,52.673992
7605,52.673992
7606,52.673992
7607,53.040295
7608,53.040295
7609,53.357754
7610,53.357754
7611,53.699635
7612,53.699635
7613,53.699635
7614,54.041515
7615,54.041515
7616,54.358974
7617,54.358974
7618,54.358974
7619,54.676437
7620,54.676437
7621,55.018314
7622,55.018314
7623,55.360195
7624,55.360195
7625,55.360195
7626,55.702076
7627,55.702076
7628,56.019535
7629,56.019535
7630,56.019535
7631,56.312576
7632,56.312576
7633,56.581196
7634,56.581196
7635,56.776558
7636,56.776558
7637,56.776558
7638,56.874237
7639,56.874237
7640,56.874237
7641,56.874237
7642,56.874237
7643,56.776558
7644,56.776558
7645,56.605618
7646,56.605618
7647,56.336998
7648,56.336998
7649,56.336998
7650,56.019535
7651,56.019535
7652,55.677658
7653,55.677658
7654,55.677658
7655,55.335777
7656,55.335777
7657,54.993896
7658,54.993896
7659,54.652016
7660,54.652016
7661,54.652016
7662,54.310135
7663,54.310135
7664,54.017094
7665,54.017094
7666,54.017094
7667,53.748474
7668,53.748474
7669,53.528694
7670,53.528694
7671,53.357754
7672,53.357754
7673,53.357754
7674,53.235653
7675,53.235653
7676,53.137974
7677,53.137974
7678,53.137974
7679,53.113552
7680,53.113552
7681,53.137974
7682,53.137974
7683,53.162395
7684,53.162395
7685,53.162395
7686,53.235653
7687,53.235653
7688,53.284492
7689,53.284492
7690,53.284492
7691,53.308914
7692,53.308914
7693,53.284492
7694,53.284492
7695,53.186813
7696,53.186813
7697,53.186813
7698,53.064713
7699,53.064713
7700,52.893772
7701,52.893772
7702,52.893772
7703,52.673992
7704,52.673992
7705,52.454212
7706,52.454212
7707,52.185593
7708,52.185593
7709,52.185593
7710,51.94139
7711,51.94139
7712,51.67277
7713,51.67277
7714,51.67277
7715,51.379734
7716,51.379734
7717,51.11111
7718,51.11111
7719,50.866913
7720,50.866913
7721,50.866913
7722,50.647133
7723,50.647133
7724,50.45177
7725,50.45177
7726,50.45177
7727,50.305252
7728,50.305252
7729,50.207573
7730,50.207573
7731,50.13431
7732,50.13431
7733,50.13431
7734,50.085472
7735,50.085472
7736,50.06105
7737,50.06105
7738,50.06105
7739,50.036633
7740,50.036633
7741,50.06105
7742,50.06105
7743,50.10989
7744,50.10989
7745,50.10989
7746,50.18315
7747,50.18315
7748,50.305252
7749,50.305252
7750,50.305252
7751,50.45177
7752,50.45177
7753,50.647133
7754,50.647133
7755,50.866913
7756,50.866913
7757,50.866913
7758,51.11111
7759,51.11111
7760,51.33089
7761,51.33089
7762,51.33089
7763,51.50183
7764,51.50183
7765,51.67277
7766,51.67277
7767,51.794872
7768,51.794872
7769,51.794872
7770,51.89255
7771,51.89255
7772,51.94139
7773,51.94139
7774,51.94139
7775,51.916973
7776,51.916973
7777,
7778,
7779,51.794872
7780,51.794872
7781,51.794872
7782,51.62393
7783,51.62393
7784,51.355312
7785,51.355312
7786,51.355312
7787,51.037853
7788,51.037853
7789,50.695972
7790,50.695972
7791,50.37851
7792,50.37851
7793,50.37851
7794,50.085472
7795,50.085472
7796,49.865692
7797,49.865692
7798,49.865692
7799,49.74359
7800,49.74359
7801,49.79243
7802,49.79243
7803,49.98779
7804,49.98779
7805,49.98779
7806,50.305252
7807,50.305252
7808,50.744812
7809,50.744812
7810,50.744812
7811,51.28205
7812,51.28205
7813,51.89255
7814,51.89255
7815,52.527473
7816,52.527473
7817,52.527473
7818,53.137974
7819,53.137974
7820,53.699635
7821,53.699635
7822,53.699635
7823,54.261295
7824,54.261295
7825,54.749695
7826,54.749695
7827,55.164837
7828,55.164837
7829,55.164837
7830,55.555557
7831,55.555557
7832,55.873016
7833,55.873016
7834,55.873016
7835,56.117218
7836,56.117218
7837,56.312576
7838,56.312576
7839,56.4591
7840,56.4591
7841,56.4591
7842,56.605618
7843,56.605618
7844,56.776558
7845,56.776558
7846,56.776558
7847,56.971916
7848,56.971916
7849,57.16728
7850,57.16728
7851,57.38706
7852,57.38706
7853,57.38706
7854,57.63126
7855,57.63126
7856,57.89988
7857,57.89988
7858,57.89988
7859,58.19292
7860,58.19292
7861,58.48596
7862,58.48596
7863,58.75458
7864,58.75458
7865,58.75458
7866,58.94994
7867,58.94994
7868,59.09646
7869,59.09646
7870,59.09646
7871,59.21856
7872,59.21856
7873,59.31624
7874,59.31624
7875,59.36508
7876,59.36508
7877,59.36508
7878,59.36508
7879,59.36508
7880,59.31624
7881,59.31624
7882,59.31624
7883,59.24298
7884,59.24298
7885,59.12088
7886,59.12088
7887,58.97436
7888,58.97436
7889,58.97436
7890,58.82784
7891,58.82784
7892,58.68132
7893,58.68132
7894,58.68132
7895,58.51038
7896,58.51038
7897,58.33944
7898,58.33944
7899,58.21734
7900,58.21734
7901,58.21734
7902,58.11966
7903,58.11966
7904,58.095238
7905,58.095238
7906,58.095238
7907,58.144077
7908,58.144077
7909,58.21734
7910,58.21734
7911,58.33944
7912,58.33944
7913,58.33944
7914,58.534798
7915,58.534798
7916,58.73016
7917,58.73016
7918,58.73016
7919,58.925518
7920,58.925518
7921,59.09646
7922,59.09646
7923,59.16972
7924,59.16972
7925,59.16972
7926,59.1453
7927,59.1453
7928,59.0232
7929,59.0232
7930,59.0232
7931,58.534798
7932,58.534798
7933,58.144077
7934,58.144077
7935,57.655678
7936,57.655678
7937,57.655678
7938,57.11844
7939,57.11844
7940,56.556778
7941,56.556778
7942,56.556778
7943,55.995117
7944,55.995117
7945,55.506718
7946,55.506718
7947,55.042736
7948,55.042736
7949,55.042736
7950,54.578754
7951,54.578754
7952,54.188034
7953,54.188034
7954,54.188034
7955,53.846153
7956,53.846153
7957,53.528694
7958,53.528694
7959,53.186813
7960,53.186813
7961,53.186813
7962,52.796093
7963,52.796093
7964,52.380955
7965,52.380955
7966,52.380955
7967,51.990234
7968,51.990234
7969,51.575092
7970,51.575092
7971,51.11111
7972,51.11111
7973,51.11111
7974,50.67155
7975,50.67155
7976,50.256413
7977,50.256413
7978,50.256413
7979,49.84127
7980,49.84127
7981,49.45055
7982,49.45055
7983,49.05983
7984,49.05983
7985,49.05983
7986,48.71795
7987,48.71795
7988,48.424908
7989,48.424908
7990,48.424908
7991,48.15629
7992,48.15629
7993,47.91209
7994,47.91209
7995,47.69231
7996,47.69231
7997,47.69231
7998,47.49695
7999,47.49695
8000,47.30159
8001,47.30159
8002,47.30159
8003,47.081806
8004,47.081806
8005,46.83761
8006,46.83761
8007,46.593407
8008,46.593407
8009,46.593407
8010,46.324787
8011,46.324787
8012,46.056168
8013,46.056168
8014,46.056168
8015,45.763126
8016,45.763126
8017,45.470085
8018,45.470085
8019,45.177048
8020,45.177048
8021,45.177048
8022,44.884007
8023,44.884007
8024,44.590965
8025,44.590965
8026,44.590965
8027,44.297924
8028,44.297924
8029,44.029305
8030,44.029305
8031,43.833946
8032,43.833946
8033,43.833946
8034,43.711845
8035,43.711845
8036,43.663006
8037,43.663006
8038,43.663006
8039,43.736263
8040,43.736263
8041,43.956043
8042,43.956043
8043,44.297924
8044,44.297924
8045,44.297924
8046,44.786327
8047,44.786327
8048,45.396828
8049,45.396828
8050,45.396828
8051,46.105007
8052,46.105007
8053,46.813187
8054,46.813187
8055,47.52137
8056,47.52137
8057,47.52137
8058,48.15629
8059,48.15629
8060,48.74237
8061,48.74237
8062,48.74237
8063,49.27961
8064,49.27961
8065,49.71917
8066,49.71917
8067,50.085472
8068,50.085472
8069,50.085472
8070,50.427353
8071,50.427353
8072,50.72039
8073,50.72039
8074,50.72039
8075,50.989014
8076,50.989014
8077,51.257633
8078,51.257633
8079,51.55067
8080,51.55067
8081,51.55067
8082,51.84371
8083,51.84371
8084,52.136753
8085,52.136753
8086,52.136753
8087,52.429794
8088,52.429794
8089,52.698414
8090,52.698414
8091,52.918194
8092,52.918194
8093,52.918194
8094,53.137974
8095,53.137974
8096,53.308914
8097,53.308914
8098,53.308914
8099,53.455433
8100,53.455433
8101,53.528694
8102,53.528694
8103,53.504276
8104,53.504276
8105,53.504276
8106,53.406593
8107,53.406593
8108,53.235653
8109,53.235653
8110,53.235653
8111,53.015873
8112,53.015873
8113,52.747253
8114,52.747253
8115,52.405373
8116,52.405373
8117,52.405373
8118,52.039074
8119,52.039074
8120,51.67277
8121,51.67277
8122,51.67277
8123,51.306473
8124,51.306473
8125,51.01343
8126,51.01343
8127,50.744812
8128,50.744812
8129,50.744812
8130,50.50061
8131,50.50061
8132,50.305252
8133,50.305252
8134,50.305252
8135,50.13431
8136,50.13431
8137,49.98779
8138,49.98779
8139,49.865692
8140,49.865692
8141,49.865692
8142,49.74359
8143,49.74359
8144,49.62149
8145,49.62149
8146,49.62149
8147,49.47497
8148,49.47497
8149,49.32845
8150,49.32845
8151,49.20635
8152,49.20635
8153,49.20635
8154,49.10867
8155,49.10867
8156,49.01099
8157,49.01099
8158,49.01099
8159,48.91331
8160,48.91331
8161,48.815628
8162,48.815628
8163,48.71795
8164,48.71795
8165,48.71795
8166,48.595848
8167,48.595848
8168,48.424908
8169,48.424908
8170,48.424908
8171,48.253967
8172,48.253967
8173,48.034187
8174,48.034187
8175,47.814407
8176,47.814407
8177,47.814407
8178,47.57021
8179,47.57021
8180,47.326008
8181,47.326008
8182,47.326008
8183,47.106228
8184,47.106228
8185,46.91087
8186,46.91087
8187,46.715508
8188,46.715508
8189,46.715508
8190,46.544567
8191,46.544567
8192,46.373627
8193,46.373627
8194,46.373627
8195,46.202686
8196,46.202686
8197,46.007328
8198,46.007328
8199,45.836388
8200,45.836388
8201,45.836388
8202,45.689865
8203,45.689865
8204,45.543346
8205,45.543346
8206,45.543346
8207,45.396828
8208,45.396828
8209,45.250305
8210,45.250305
8211,45.128204
8212,45.128204
8213,45.128204
8214,45.006107
8215,45.006107
8216,44.908424
8217,44.908424
8218,44.908424
8219,44.810745
8220,44.810745
8221,44.713066
8222,44.713066
8223,44.615387
8224,44.615387
8225,44.615387
8226,44.517704
8227,44.517704
8228,44.420025
8229,44.420025
8230,44.420025
8231,44.322346
8232,44.322346
8233,44.224667
8234,44.224667
8235,44.151405
8236,44.151405
8237,44.151405
8238,
8239,
8240,44.126984
8241,44.126984
8242,44.126984
8243,44.151405
8244,44.151405
8245,44.175823
8246,44.175823
8247,44.224667
8248,44.224667
8249,44.224667
8250,44.273506
8251,44.273506
8252,44.322346
8253,44.322346
8254,44.322346
8255,44.346764
8256,44.346764
8257,44.322346
8258,44.322346
8259,44.249084
8260,44.249084
8261,44.249084
8262,44.126984
8263,44.126984
8264,44.029305
8265,44.029305
8266,44.029305
8267,43.956043
8268,43.956043
8269,43.931625
8270,43.931625
8271,44.053726
8272,44.053726
8273,44.053726
8274,44.297924
8275,44.297924
8276,44.688644
8277,44.688644
8278,44.688644
8279,45.250305
8280,45.250305
8281,45.95849
8282,45.95849
8283,46.73993
8284,46.73993
8285,46.73993
8286,47.57021
8287,47.57021
8288,48.40049
8289,48.40049
8290,48.40049
8291,49.20635
8292,49.20635
8293,50.01221
8294,50.01221
8295,50.744812
8296,50.744812
8297,50.744812
8298,51.355312
8299,51.355312
8300,51.868134
8301,51.868134
8302,51.868134
8303,52.307693
8304,52.307693
8305,52.698414
8306,52.698414
8307,53.040295
8308,53.040295
8309,53.040295
8310,53.357754
8311,53.357754
8312,53.699635
8313,53.699635
8314,53.699635
8315,54.529915
8316,54.529915
8317,55.018314
8318,55.018314
8319,55.555557
8320,55.555557
8321,55.555557
8322,56.092796
8323,56.092796
8324,56.63004
8325,56.63004
8326,56.63004
8327,57.16728
8328,57.16728
8329,57.655678
8330,57.655678
8331,58.07082
8332,58.07082
8333,58.07082
8334,58.38828
8335,58.38828
8336,58.63248
8337,58.63248
8338,58.63248
8339,58.80342
8340,58.80342
8341,58.87668
8342,58.87668
8343,58.85226
8344,58.85226
8345,58.85226
8346,58.705738
8347,58.705738
8348,58.51038
8349,58.51038
8350,58.51038
8351,58.26618
8352,58.26618
8353,57.94872
8354,57.94872
8355,57.58242
8356,57.58242
8357,57.58242
8358,57.16728
8359,57.16728
8360,56.752136
8361,56.752136
8362,56.752136
8363,56.28816
8364,56.28816
8365,55.873016
8366,55.873016
8367,55.482296
8368,55.482296
8369,55.482296
8370,55.115997
8371,55.115997
8372,54.798534
8373,54.798534
8374,54.798534
8375,54.505497
8376,54.505497
8377,54.261295
8378,54.261295
8379,54.017094
8380,54.017094
8381,54.017094
8382,53.797314
8383,53.797314
8384,53.626373
8385,53.626373
8386,53.626373
8387,53.431015
8388,53.431015
