,ppg
0,58.2906
1,58.2906
2,58.2906
3,57.82662
4,57.82662
5,57.28938
6,57.28938
7,57.28938
8,56.67888
9,56.67888
10,55.946278
11,55.946278
12,55.042736
13,55.042736
14,55.042736
15,53.968254
16,53.968254
17,52.820515
18,52.820515
19,52.820515
20,51.72161
21,51.72161
22,50.62271
23,50.62271
24,49.62149
25,49.62149
26,49.62149
27,48.74237
28,48.74237
29,47.96093
30,47.96093
31,47.96093
32,47.326008
33,47.326008
34,46.813187
35,46.813187
36,46.422466
37,46.422466
38,46.422466
39,46.080585
40,46.080585
41,45.714287
42,45.714287
43,45.714287
44,45.274727
45,45.274727
46,44.835167
47,44.835167
48,44.444447
49,44.444447
50,44.444447
51,43.956043
52,43.956043
53,43.369965
54,43.369965
55,43.369965
56,42.783882
57,42.783882
58,42.197803
59,42.197803
60,41.709404
61,41.709404
62,41.709404
63,41.367523
64,41.367523
65,41.147743
66,41.147743
67,41.147743
68,41.00122
69,41.00122
70,40.87912
71,40.87912
72,40.708183
73,40.708183
74,40.708183
75,40.4884
76,40.4884
77,40.195362
78,40.195362
79,40.195362
80,39.78022
81,39.78022
82,39.29182
83,39.29182
84,38.80342
85,38.80342
86,38.80342
87,38.26618
88,38.26618
89,37.655678
90,37.655678
91,37.655678
92,36.996338
93,36.996338
94,36.410255
95,36.410255
96,35.946278
97,35.946278
98,35.946278
99,35.506718
100,35.506718
101,35.091576
102,35.091576
103,35.091576
104,34.749695
105,34.749695
106,34.432236
107,34.432236
108,34.065933
109,34.065933
110,34.065933
111,33.699635
112,33.699635
113,33.357754
114,33.357754
115,33.357754
116,33.040295
117,33.040295
118,32.747253
119,32.747253
120,32.50305
121,32.50305
122,32.50305
123,32.28327
124,32.28327
125,32.11233
126,32.11233
127,32.11233
128,32.039074
129,32.039074
130,31.941393
131,31.941393
132,31.892553
133,31.892553
134,31.892553
135,31.916973
136,31.916973
137,31.892553
138,31.892553
139,31.892553
140,31.819292
141,31.819292
142,31.746033
143,31.746033
144,31.648352
145,31.648352
146,31.648352
147,31.526253
148,31.526253
149,31.355312
150,31.355312
151,31.355312
152,31.159952
153,31.159952
154,30.964592
155,30.964592
156,30.818071
157,30.818071
158,30.818071
159,30.647131
160,30.647131
161,30.47619
162,30.47619
163,30.47619
164,30.378511
165,30.378511
166,30.378511
167,30.378511
168,30.622711
169,30.622711
170,30.622711
171,31.11111
172,31.11111
173,31.868132
174,31.868132
175,31.868132
176,33.137974
177,33.137974
178,34.920635
179,34.920635
180,37.0696
181,37.0696
182,37.0696
183,39.53602
184,39.53602
185,42.22222
186,42.22222
187,42.22222
188,44.835167
189,44.835167
190,47.374847
191,47.374847
192,49.74359
193,49.74359
194,49.74359
195,51.84371
196,51.84371
197,53.675213
198,53.675213
199,53.675213
200,55.189255
201,55.189255
202,56.4591
203,56.4591
204,57.435898
205,57.435898
206,57.435898
207,58.07082
208,58.07082
209,58.46154
210,58.46154
211,58.46154
212,58.68132
213,58.68132
214,58.705738
215,58.705738
216,58.55922
217,58.55922
218,58.55922
219,58.33944
220,58.33944
221,58.11966
222,58.11966
223,58.11966
224,57.82662
225,57.82662
226,57.533577
227,57.533577
228,57.28938
229,57.28938
230,57.28938
231,57.0696
232,57.0696
233,56.923077
234,56.923077
235,56.923077
236,56.776558
237,56.776558
238,56.581196
239,56.581196
240,56.385838
241,56.385838
242,56.385838
243,56.092796
244,56.092796
245,55.653236
246,55.653236
247,55.653236
248,55.115997
249,55.115997
250,54.481075
251,54.481075
252,53.724056
253,53.724056
254,53.724056
255,52.796093
256,52.796093
257,51.770454
258,51.770454
259,51.770454
260,50.695972
261,50.695972
262,49.57265
263,49.57265
264,48.52259
265,48.52259
266,48.52259
267,47.643467
268,47.643467
269,46.886448
270,46.886448
271,46.886448
272,46.202686
273,46.202686
274,45.56777
275,45.56777
276,45.054947
277,45.054947
278,45.054947
279,44.615387
280,44.615387
281,44.126984
282,44.126984
283,44.126984
284,43.663006
285,43.663006
286,43.272285
287,43.272285
288,42.930405
289,42.930405
290,42.930405
291,42.661785
292,42.661785
293,42.539684
294,42.539684
295,42.539684
296,42.466423
297,42.466423
298,42.490845
299,42.490845
300,42.490845
301,42.490845
302,42.490845
303,42.344322
304,42.344322
305,42.148964
306,42.148964
307,42.148964
308,41.929184
309,41.929184
310,41.636143
311,41.636143
312,41.245422
313,41.245422
314,41.245422
315,40.757023
316,40.757023
317,40.21978
318,40.21978
319,40.21978
320,39.65812
321,39.65812
322,39.04762
323,39.04762
324,38.43712
325,38.43712
326,38.43712
327,37.875458
328,37.875458
329,37.46032
330,37.46032
331,37.46032
332,37.094017
333,37.094017
334,36.825397
335,36.825397
336,36.630035
337,36.630035
338,36.630035
339,36.385838
340,36.385838
341,36.019535
342,36.019535
343,36.019535
344,35.604397
345,35.604397
346,35.140415
347,35.140415
348,34.578754
349,34.578754
350,34.578754
351,33.943836
352,33.943836
353,33.357754
354,33.357754
355,33.357754
356,32.844933
357,32.844933
358,32.50305
359,32.50305
360,32.33211
361,32.33211
362,32.33211
363,32.28327
364,32.28327
365,32.356533
366,32.356533
367,32.356533
368,32.454212
369,32.454212
370,32.454212
371,32.454212
372,32.356533
373,32.356533
374,32.356533
375,32.210014
376,32.210014
377,31.990232
378,31.990232
379,31.990232
380,31.672771
381,31.672771
382,31.330893
383,31.330893
384,31.062271
385,31.062271
386,31.062271
387,30.91575
388,30.91575
389,30.793652
390,30.793652
391,30.793652
392,30.69597
393,30.69597
394,30.647131
395,30.647131
396,30.573872
397,30.573872
398,30.573872
399,30.427351
400,30.427351
401,30.25641
402,30.25641
403,30.25641
404,30.08547
405,30.08547
406,29.93895
407,29.93895
408,29.86569
409,29.86569
410,29.86569
411,29.89011
412,29.89011
413,30.08547
414,30.08547
415,30.08547
416,30.573872
417,30.573872
418,31.599512
419,31.599512
420,33.186813
421,33.186813
422,33.186813
423,35.311356
424,35.311356
425,37.94872
426,37.94872
427,37.94872
428,40.95238
429,40.95238
430,44.273506
431,44.273506
432,47.61905
433,47.61905
434,47.61905
435,50.67155
436,50.67155
437,53.235653
438,53.235653
439,53.235653
440,55.286938
441,55.286938
442,56.84982
443,56.84982
444,57.77778
445,57.77778
446,57.77778
447,58.19292
448,58.19292
449,58.36386
450,58.36386
451,58.36386
452,58.38828
453,58.38828
454,58.36386
455,58.36386
456,58.2906
457,58.2906
458,58.2906
459,58.21734
460,58.21734
461,58.21734
462,58.21734
463,58.21734
464,58.21734
465,58.21734
466,58.11966
467,58.11966
468,58.02198
469,58.02198
470,58.02198
471,57.924297
472,57.924297
473,57.753357
474,57.753357
475,57.753357
476,57.558
477,57.558
478,57.313797
479,57.313797
480,56.89866
481,56.89866
482,56.89866
483,56.336998
484,56.336998
485,55.726498
486,55.726498
487,55.726498
488,54.969475
489,54.969475
490,54.163616
491,54.163616
492,53.406593
493,53.406593
494,53.406593
495,52.747253
496,52.747253
497,52.11233
498,52.11233
499,52.11233
500,51.45299
501,51.45299
502,50.744812
503,50.744812
504,49.84127
505,49.84127
506,49.84127
507,48.84005
508,48.84005
509,47.814407
510,47.814407
511,47.814407
512,46.715508
513,46.715508
514,45.641026
515,45.641026
516,44.713066
517,44.713066
518,44.713066
519,43.956043
520,43.956043
521,43.369965
522,43.369965
523,43.369965
524,43.028084
525,43.028084
526,42.808304
527,42.808304
528,42.710625
529,42.710625
530,42.710625
531,42.661785
532,42.661785
533,42.539684
534,42.539684
535,42.539684
536,42.319904
537,42.319904
538,42.026863
539,42.026863
540,41.636143
541,41.636143
542,41.636143
543,41.098904
544,41.098904
545,40.537243
546,40.537243
547,40.537243
548,39.95116
549,39.95116
550,39.31624
551,39.31624
552,38.80342
553,38.80342
554,38.80342
555,38.4127
556,38.4127
557,38.095238
558,38.095238
559,38.095238
560,37.85104
561,37.85104
562,37.655678
563,37.655678
564,37.484737
565,37.484737
566,37.484737
567,37.362637
568,37.362637
569,37.216118
570,37.216118
571,37.216118
572,36.971916
573,36.971916
574,36.654457
575,36.654457
576,36.214897
577,36.214897
578,36.214897
579,35.604397
580,35.604397
581,34.896217
582,34.896217
583,34.896217
584,34.163616
585,34.163616
586,33.553116
587,33.553116
588,33.137974
589,33.137974
590,33.137974
591,32.893772
592,32.893772
593,32.820515
594,32.820515
595,32.820515
596,32.771675
597,32.771675
598,32.698414
599,32.698414
600,32.673992
601,32.673992
602,32.673992
603,32.600735
604,32.600735
605,32.478634
606,32.478634
607,32.478634
608,32.258854
609,32.258854
610,31.965813
611,31.965813
612,31.623932
613,31.623932
614,31.623932
615,31.257631
616,31.257631
617,30.91575
618,30.91575
619,30.91575
620,30.598291
621,30.598291
622,30.354092
623,30.354092
624,30.28083
625,30.28083
626,30.28083
627,30.32967
628,30.32967
629,30.402931
630,30.402931
631,30.402931
632,30.549452
633,30.549452
634,30.818071
635,30.818071
636,31.037851
637,31.037851
638,31.037851
639,31.159952
640,31.159952
641,31.208792
642,31.208792
643,31.208792
644,31.184372
645,31.184372
646,31.037851
647,31.037851
648,30.72039
649,30.72039
650,30.72039
651,30.30525
652,30.30525
653,29.963371
654,29.963371
655,29.963371
656,29.79243
657,29.79243
658,30.03663
659,30.03663
660,30.69597
661,30.69597
662,30.69597
663,31.770452
664,31.770452
665,33.479855
666,33.479855
667,33.479855
668,35.750916
669,35.750916
670,38.38828
671,38.38828
672,41.147743
673,41.147743
674,41.147743
675,43.931625
676,43.931625
677,46.593407
678,46.593407
679,46.593407
680,48.98657
681,48.98657
682,51.11111
683,51.11111
684,52.967033
685,52.967033
686,52.967033
687,54.529915
688,54.529915
689,55.799755
690,55.799755
691,55.799755
692,56.874237
693,56.874237
694,57.704517
695,57.704517
696,58.26618
697,58.26618
698,58.26618
699,58.63248
700,58.63248
701,58.87668
702,58.87668
703,58.87668
704,58.94994
705,58.94994
706,58.82784
707,58.82784
708,58.63248
709,58.63248
710,58.63248
711,58.38828
712,58.38828
713,58.02198
714,58.02198
715,58.02198
716,57.533577
717,57.533577
718,57.045177
719,57.045177
720,56.605618
721,56.605618
722,56.605618
723,56.190475
724,56.190475
725,55.799755
726,55.799755
727,55.799755
728,55.45788
729,55.45788
730,55.189255
731,55.189255
732,54.896217
733,54.896217
734,54.896217
735,54.456654
736,54.456654
737,53.846153
738,53.846153
739,53.846153
740,53.064713
741,53.064713
742,52.087914
743,52.087914
744,50.915752
745,50.915752
746,50.915752
747,49.54823
748,49.54823
749,48.18071
750,48.18071
751,48.18071
752,47.00855
753,47.00855
754,46.080585
755,46.080585
756,45.372406
757,45.372406
758,45.372406
759,44.884007
760,44.884007
761,44.517704
762,44.517704
763,44.517704
764,44.151405
765,44.151405
766,43.760685
767,43.760685
768,43.369965
769,43.369965
770,43.369965
771,42.979244
772,42.979244
773,42.539684
774,42.539684
775,42.539684
776,42.075703
777,42.075703
778,41.66056
779,41.66056
780,41.245422
781,41.245422
782,41.245422
783,40.854702
784,40.854702
785,40.46398
786,40.46398
787,40.46398
788,40.1221
789,40.1221
790,39.90232
791,39.90232
792,39.73138
793,39.73138
794,39.73138
795,39.56044
796,39.56044
797,39.31624
798,39.31624
799,39.31624
800,38.99878
801,38.99878
802,38.6569
803,38.6569
804,38.24176
805,38.24176
806,38.24176
807,37.77778
808,37.77778
809,37.362637
810,37.362637
811,37.362637
812,36.89866
813,36.89866
814,36.336998
815,36.336998
816,35.750916
817,35.750916
818,35.750916
819,35.213676
820,35.213676
821,34.798534
822,34.798534
823,34.798534
824,34.603176
825,34.603176
826,34.529915
827,34.529915
828,34.554337
829,34.554337
830,34.554337
831,34.578754
832,34.578754
833,34.481075
834,34.481075
835,34.481075
836,34.236874
837,34.236874
838,33.772896
839,33.772896
840,33.162395
841,33.162395
842,33.162395
843,32.405373
844,32.405373
845,31.648352
846,31.648352
847,31.648352
848,31.08669
849,31.08669
850,30.818071
851,30.818071
852,30.72039
853,30.72039
854,30.72039
855,30.793652
856,30.793652
857,31.08669
858,31.08669
859,31.08669
860,31.428572
861,31.428572
862,31.697193
863,31.697193
864,31.868132
865,31.868132
866,31.868132
867,31.868132
868,31.868132
869,31.672771
870,31.672771
871,31.672771
872,31.379732
873,31.379732
874,31.037851
875,31.037851
876,30.622711
877,30.622711
878,30.622711
879,30.158731
880,30.158731
881,29.74359
882,29.74359
883,29.74359
884,29.32845
885,29.32845
886,28.98657
887,28.98657
888,28.766788
889,28.766788
890,28.766788
891,28.69353
892,28.69353
893,28.84005
894,28.84005
895,28.84005
896,29.18193
897,29.18193
898,29.59707
899,29.59707
900,30.03663
901,30.03663
902,30.03663
903,30.45177
904,30.45177
905,30.91575
906,30.91575
907,30.91575
908,31.623932
909,31.623932
910,32.649574
911,32.649574
912,34.114773
913,34.114773
914,34.114773
915,36.141636
916,36.141636
917,38.705738
918,38.705738
919,38.705738
920,41.66056
921,41.66056
922,44.713066
923,44.713066
924,47.69231
925,47.69231
926,47.69231
927,50.35409
928,50.35409
929,52.72283
930,52.72283
931,52.72283
932,54.774117
933,54.774117
934,56.361416
935,56.361416
936,57.435898
937,57.435898
938,57.435898
939,58.07082
940,58.07082
941,58.46154
942,58.46154
943,58.46154
944,58.63248
945,58.63248
946,58.58364
947,58.58364
948,58.36386
949,58.36386
950,58.36386
951,58.095238
952,58.095238
953,57.924297
954,57.924297
955,57.924297
956,57.82662
957,57.82662
958,57.82662
959,57.82662
960,57.875458
961,57.875458
962,57.875458
963,57.85104
964,57.85104
965,57.72894
966,57.72894
967,57.72894
968,57.484737
969,57.484737
970,57.142857
971,57.142857
972,56.776558
973,56.776558
974,56.776558
975,56.263737
976,56.263737
977,55.579975
978,55.579975
979,55.579975
980,54.847374
981,54.847374
982,54.090355
983,54.090355
984,53.333336
985,53.333336
986,53.333336
987,52.454212
988,52.454212
989,51.55067
990,51.55067
991,51.55067
992,50.695972
993,50.695972
994,49.865692
995,49.865692
996,49.05983
997,49.05983
998,49.05983
999,48.22955
1000,48.22955
1001,47.30159
1002,47.30159
1003,47.30159
1004,46.373627
1005,46.373627
1006,45.518925
1007,45.518925
1008,44.737484
1009,44.737484
1010,44.737484
1011,44.102566
1012,44.102566
1013,43.589745
1014,43.589745
1015,43.589745
1016,43.199024
1017,43.199024
1018,42.954823
1019,42.954823
1020,42.83272
1021,42.83272
1022,42.83272
1023,42.710625
1024,42.710625
1025,42.61294
1026,42.61294
1027,42.61294
1028,42.515263
1029,42.515263
1030,42.271065
1031,42.271065
1032,41.904762
1033,41.904762
1034,41.904762
1035,41.489624
1036,41.489624
1037,41.025642
1038,41.025642
1039,41.025642
1040,40.4884
1041,40.4884
1042,40.02442
1043,40.02442
1044,39.65812
1045,39.65812
1046,39.65812
1047,39.2674
1048,39.2674
1049,38.97436
1050,38.97436
1051,38.97436
1052,38.73016
1053,38.73016
1054,38.51038
1055,38.51038
1056,38.363857
1057,38.363857
1058,38.363857
1059,38.144077
1060,38.144077
1061,37.82662
1062,37.82662
1063,37.82662
1064,37.46032
1065,37.46032
1066,36.996338
1067,36.996338
1068,36.483517
1069,36.483517
1070,36.483517
1071,35.873016
1072,35.873016
1073,35.238094
1074,35.238094
1075,35.238094
1076,34.652016
1077,34.652016
1078,34.188034
1079,34.188034
1080,33.894993
1081,33.894993
1082,33.894993
1083,33.748474
1084,33.748474
1085,33.675213
1086,33.675213
1087,33.675213
1088,33.772896
1089,33.772896
1090,33.870575
1091,33.870575
1092,33.797314
1093,33.797314
1094,33.797314
1095,33.601955
1096,33.601955
1097,33.308914
1098,33.308914
1099,33.308914
1100,32.918194
1101,32.918194
1102,32.478634
1103,32.478634
1104,32.06349
1105,32.06349
1106,32.06349
1107,31.648352
1108,31.648352
1109,31.306473
1110,31.306473
1111,31.306473
1112,31.135532
1113,31.135532
1114,31.08669
1115,31.08669
1116,31.135532
1117,31.135532
1118,31.135532
1119,31.257631
1120,31.257631
1121,31.404152
1122,31.404152
1123,31.404152
1124,31.575092
1125,31.575092
1126,31.721613
1127,31.721613
1128,31.746033
1129,31.746033
1130,31.746033
1131,31.648352
1132,31.648352
1133,31.404152
1134,31.404152
1135,31.404152
1136,31.08669
1137,31.08669
1138,30.769232
1139,30.769232
1140,30.427351
1141,30.427351
1142,30.427351
1143,30.207571
1144,30.207571
1145,30.207571
1146,30.207571
1147,30.207571
1148,30.573872
1149,30.573872
1150,31.355312
1151,31.355312
1152,32.600735
1153,32.600735
1154,32.600735
1155,34.432236
1156,34.432236
1157,36.874237
1158,36.874237
1159,36.874237
1160,39.70696
1161,39.70696
1162,42.710625
1163,42.710625
1164,45.811966
1165,45.811966
1166,45.811966
1167,48.66911
1168,48.66911
1169,51.28205
1170,51.28205
1171,51.28205
1172,53.601955
1173,53.601955
1174,55.384617
1175,55.384617
1176,56.605618
1177,56.605618
1178,56.605618
1179,57.50916
1180,57.50916
1181,58.24176
1182,58.24176
1183,58.24176
1184,58.87668
1185,58.87668
1186,59.43834
1187,59.43834
1188,59.926743
1189,59.926743
1190,59.926743
1191,60.34188
1192,60.34188
1193,60.6105
1194,60.6105
1195,60.6105
1196,60.6105
1197,60.6105
1198,60.39072
1199,60.39072
1200,60.0
1201,60.0
1202,60.0
1203,59.41392
1204,59.41392
1205,58.75458
1206,58.75458
1207,58.75458
1208,58.144077
1209,58.144077
1210,57.558
1211,57.558
1212,56.971916
1213,56.971916
1214,56.971916
1215,56.532356
1216,56.532356
1217,56.214897
1218,56.214897
1219,56.214897
1220,55.824177
1221,55.824177
1222,55.360195
1223,55.360195
1224,54.847374
1225,54.847374
1226,54.847374
1227,54.236874
1228,54.236874
1229,53.479855
1230,53.479855
1231,53.479855
1232,51.84371
1233,51.84371
1234,50.525032
1235,50.525032
1236,49.15751
1237,49.15751
1238,49.15751
1239,46.666668
1240,46.666668
1241,45.714287
1242,45.714287
1243,45.714287
1244,44.981686
1245,44.981686
1246,44.200245
1247,44.200245
1248,44.029305
1249,44.029305
1250,44.029305
1251,43.956043
1252,43.956043
1253,43.565323
1254,43.565323
1255,43.565323
1256,43.150185
1257,43.150185
1258,42.637363
1259,42.637363
1260,41.855923
1261,41.855923
1262,41.855923
1263,41.367523
1264,41.367523
1265,40.95238
1266,40.95238
1267,40.95238
1268,40.708183
1269,40.708183
1270,40.634922
1271,40.634922
1272,40.586082
1273,40.586082
1274,40.586082
1275,40.51282
1276,40.51282
1277,40.39072
1278,40.39072
1279,40.39072
1280,40.1221
1281,40.1221
1282,39.70696
1283,39.70696
1284,39.16972
1285,39.16972
1286,39.16972
1287,38.58364
1288,38.58364
1289,37.94872
1290,37.94872
1291,37.94872
1292,37.38706
1293,37.38706
1294,36.923077
1295,36.923077
1296,36.4591
1297,36.4591
1298,36.4591
1299,36.117218
1300,36.117218
1301,35.897438
1302,35.897438
1303,35.897438
1304,35.726498
1305,35.726498
1306,35.604397
1307,35.604397
1308,35.482296
1309,35.482296
1310,35.482296
1311,35.384617
1312,35.384617
1313,35.238094
1314,35.238094
1315,35.238094
1316,35.067154
1317,35.067154
1318,34.822956
1319,34.822956
1320,34.505497
1321,34.505497
1322,34.505497
1323,34.139194
1324,34.139194
1325,33.675213
1326,33.675213
1327,33.675213
1328,33.260075
1329,33.260075
1330,32.94261
1331,32.94261
1332,32.796093
1333,32.796093
1334,32.796093
1335,32.771675
1336,32.771675
1337,32.844933
1338,32.844933
1339,32.844933
1340,33.040295
1341,33.040295
1342,33.235653
1343,33.235653
1344,33.431015
1345,33.431015
1346,33.431015
1347,33.528694
1348,33.528694
1349,33.382175
1350,33.382175
1351,33.382175
1352,33.113552
1353,33.113552
1354,32.771675
1355,32.771675
1356,32.33211
1357,32.33211
1358,32.33211
1359,31.892553
1360,31.892553
1361,31.477411
1362,31.477411
1363,31.477411
1364,31.135532
1365,31.135532
1366,30.964592
1367,30.964592
1368,30.964592
1369,30.964592
1370,30.964592
1371,31.08669
1372,31.08669
1373,31.379732
1374,31.379732
1375,31.379732
1376,31.916973
1377,31.916973
1378,32.844933
1379,32.844933
1380,34.139194
1381,34.139194
1382,34.139194
1383,35.799755
1384,35.799755
1385,37.94872
1386,37.94872
1387,37.94872
1388,40.51282
1389,40.51282
1390,43.394382
1391,43.394382
1392,46.471306
1393,46.471306
1394,46.471306
1395,49.49939
1396,49.49939
1397,52.234432
1398,52.234432
1399,52.234432
1400,54.676437
1401,54.676437
1402,56.752136
1403,56.752136
1404,58.43712
1405,58.43712
1406,58.43712
1407,59.755802
1408,59.755802
1409,60.7326
1410,60.7326
1411,60.7326
1412,61.489624
1413,61.489624
1414,61.9536
1415,61.9536
1416,62.100124
1417,62.100124
1418,62.100124
1419,62.00244
1420,62.00244
1421,61.73382
1422,61.73382
1423,61.73382
1424,61.294262
1425,61.294262
1426,60.78144
1427,60.78144
1428,60.2442
1429,60.2442
1430,60.2442
1431,59.73138
1432,59.73138
1433,59.36508
1434,59.36508
1435,59.36508
1436,59.1453
1437,59.1453
1438,58.925518
1439,58.925518
1440,58.75458
1441,58.75458
1442,58.75458
1443,58.51038
1444,58.51038
1445,58.11966
1446,58.11966
1447,58.11966
1448,57.6801
1449,57.6801
1450,57.0696
1451,57.0696
1452,56.23932
1453,56.23932
1454,56.23932
1455,55.311356
1456,55.311356
1457,54.285717
1458,54.285717
1459,54.285717
1460,53.162395
1461,53.162395
1462,52.039074
1463,52.039074
1464,51.037853
1465,51.037853
1466,51.037853
1467,50.15873
1468,50.15873
1469,49.40171
1470,49.40171
1471,49.40171
1472,48.79121
1473,48.79121
1474,48.22955
1475,48.22955
1476,47.765568
1477,47.765568
1478,47.765568
1479,47.374847
1480,47.374847
1481,46.984127
1482,46.984127
1483,46.984127
1484,46.593407
1485,46.593407
1486,46.153847
1487,46.153847
1488,45.665447
1489,45.665447
1490,45.665447
1491,45.152626
1492,45.152626
1493,44.615387
1494,44.615387
1495,44.615387
1496,44.102566
1497,44.102566
1498,43.687424
1499,43.687424
1500,43.394382
1501,43.394382
1502,43.394382
1503,43.199024
1504,43.199024
1505,43.101345
1506,43.101345
1507,43.101345
1508,43.052505
1509,43.052505
1510,43.028084
1511,43.028084
1512,42.905983
1513,42.905983
1514,42.905983
1515,42.710625
1516,42.710625
1517,42.466423
1518,42.466423
1519,42.466423
1520,42.100124
1521,42.100124
1522,41.538464
1523,41.538464
1524,40.854702
1525,40.854702
1526,40.854702
1527,40.17094
1528,40.17094
1529,39.5116
1530,39.5116
1531,39.5116
1532,38.94994
1533,38.94994
1534,38.58364
1535,38.58364
1536,38.2906
1537,38.2906
1538,38.2906
1539,38.095238
1540,38.095238
1541,37.94872
1542,37.94872
1543,37.94872
1544,37.77778
1545,37.77778
1546,37.50916
1547,37.50916
1548,37.11844
1549,37.11844
1550,37.11844
1551,36.703297
1552,36.703297
1553,36.336998
1554,36.336998
1555,36.336998
1556,36.043957
1557,36.043957
1558,35.750916
1559,35.750916
1560,35.409035
1561,35.409035
1562,35.409035
1563,35.091576
1564,35.091576
1565,34.847374
1566,34.847374
1567,34.847374
1568,34.676434
1569,34.676434
1570,34.578754
1571,34.578754
1572,34.529915
1573,34.529915
1574,34.529915
1575,34.505497
1576,34.505497
1577,34.554337
1578,34.554337
1579,34.554337
1580,34.578754
1581,34.578754
1582,34.481075
1583,34.481075
1584,34.285713
1585,34.285713
1586,34.285713
1587,33.992676
1588,33.992676
1589,33.626373
1590,33.626373
1591,33.626373
1592,33.284492
1593,33.284492
1594,32.967033
1595,32.967033
1596,32.698414
1597,32.698414
1598,32.698414
1599,32.576313
1600,32.576313
1601,32.50305
1602,32.50305
1603,32.50305
1604,32.576313
1605,32.576313
1606,32.869354
1607,32.869354
1608,33.504272
1609,33.504272
1610,33.504272
1611,34.456654
1612,34.456654
1613,35.824177
1614,35.824177
1615,35.824177
1616,37.8022
1617,37.8022
1618,40.34188
1619,40.34188
1620,43.272285
1621,43.272285
1622,43.272285
1623,46.446888
1624,46.446888
1625,49.76801
1626,49.76801
1627,49.76801
1628,52.967033
1629,52.967033
1630,55.873016
1631,55.873016
1632,58.33944
1633,58.33944
1634,58.33944
1635,60.366302
1636,60.366302
1637,61.880344
1638,61.880344
1639,61.880344
1640,62.954823
1641,62.954823
1642,63.760685
1643,63.760685
1644,64.22466
1645,64.22466
1646,64.22466
1647,64.34676
1648,64.34676
1649,64.371185
1650,64.371185
1651,64.371185
1652,64.273506
1653,64.273506
1654,64.029305
1655,64.029305
1656,63.663006
1657,63.663006
1658,63.663006
1659,63.174603
1660,63.174603
1661,62.661785
1662,62.661785
1663,62.661785
1664,62.197803
1665,62.197803
1666,61.8315
1667,61.8315
1668,61.51404
1669,61.51404
1670,61.51404
1671,61.318684
1672,61.318684
1673,61.12332
1674,61.12332
1675,61.12332
1676,60.708183
1677,60.708183
1678,60.195362
1679,60.195362
1680,59.6337
1681,59.6337
1682,59.6337
1683,58.85226
1684,58.85226
1685,57.94872
1686,57.94872
1687,57.94872
1688,57.045177
1689,57.045177
1690,56.117218
1691,56.117218
1692,55.140415
1693,55.140415
1694,55.140415
1695,54.188034
1696,54.188034
1697,53.308914
1698,53.308914
1699,53.308914
1700,52.429794
1701,52.429794
1702,51.575092
1703,51.575092
1704,50.72039
1705,50.72039
1706,50.72039
1707,49.89011
1708,49.89011
1709,49.08425
1710,49.08425
1711,49.08425
1712,48.253967
1713,48.253967
1714,47.52137
1715,47.52137
1716,46.886448
1717,46.886448
1718,46.886448
1719,46.39805
1720,46.39805
1721,46.105007
1722,46.105007
1723,46.105007
1724,45.909645
1725,45.909645
1726,45.811966
1727,45.811966
1728,45.714287
1729,45.714287
1730,45.714287
1731,45.56777
1732,45.56777
1733,45.299145
1734,45.299145
1735,45.299145
1736,44.981686
1737,44.981686
1738,44.688644
1739,44.688644
1740,44.420025
1741,44.420025
1742,44.420025
1743,44.102566
1744,44.102566
1745,43.687424
1746,43.687424
1747,43.687424
1748,43.272285
1749,43.272285
1750,42.783882
1751,42.783882
1752,42.246643
1753,42.246643
1754,42.246643
1755,41.66056
1756,41.66056
1757,41.147743
1758,41.147743
1759,41.147743
1760,40.757023
1761,40.757023
1762,40.415142
1763,40.415142
1764,40.146523
1765,40.146523
1766,40.146523
1767,39.8779
1768,39.8779
1769,39.58486
1770,39.58486
1771,39.58486
1772,39.24298
1773,39.24298
1774,38.925518
1775,38.925518
1776,38.48596
1777,38.48596
1778,38.48596
1779,37.94872
1780,37.94872
1781,37.411476
1782,37.411476
1783,37.411476
1784,36.874237
1785,36.874237
1786,36.410255
1787,36.410255
1788,36.043957
1789,36.043957
1790,36.043957
1791,35.799755
1792,35.799755
1793,35.677658
1794,35.677658
1795,35.677658
1796,35.628815
1797,35.628815
1798,35.653236
1799,35.653236
1800,35.653236
1801,35.653236
1802,35.653236
1803,35.604397
1804,35.604397
1805,35.579975
1806,35.579975
1807,35.579975
1808,35.531136
1809,35.531136
1810,35.457874
1811,35.457874
1812,35.360195
1813,35.360195
1814,35.360195
1815,35.213676
1816,35.213676
1817,35.018314
1818,35.018314
1819,35.018314
1820,34.798534
1821,34.798534
1822,34.603176
1823,34.603176
1824,34.407814
1825,34.407814
1826,34.407814
1827,34.261295
1828,34.261295
1829,34.139194
1830,34.139194
1831,34.139194
1832,33.968254
1833,33.968254
1834,33.894993
1835,33.894993
1836,33.894993
1837,33.894993
1838,33.894993
1839,34.114773
1840,34.114773
1841,34.700855
1842,34.700855
1843,34.700855
1844,35.604397
1845,35.604397
1846,37.045177
1847,37.045177
1848,39.19414
1849,39.19414
1850,39.19414
1851,41.78266
1852,41.78266
1853,44.713066
1854,44.713066
1855,44.713066
1856,47.96093
1857,47.96093
1858,51.23321
1859,51.23321
1860,54.383396
1861,54.383396
1862,54.383396
1863,57.33822
1864,57.33822
1865,59.90232
1866,59.90232
1867,59.90232
1868,61.929184
1869,61.929184
1870,63.516483
1871,63.516483
1872,64.688644
1873,64.688644
1874,64.688644
1875,65.27473
1876,65.27473
1877,65.470085
1878,65.470085
1879,65.470085
1880,65.470085
1881,65.470085
1882,65.29915
1883,65.29915
1884,65.030525
1885,65.030525
1886,65.030525
1887,64.76191
1888,64.76191
1889,64.51771
1890,64.51771
1891,64.51771
1892,64.39561
1893,64.39561
1894,64.29793
1895,64.29793
1896,64.07815
1897,64.07815
1898,64.07815
1899,63.785107
1900,63.785107
1901,63.540905
1902,63.540905
1903,63.540905
1904,63.272285
1905,63.272285
1906,62.881565
1907,62.881565
1908,62.417583
1909,62.417583
1910,62.417583
1911,61.929184
1912,61.929184
1913,61.318684
1914,61.318684
1915,61.318684
1916,60.488403
1917,60.488403
1918,59.56044
1919,59.56044
1920,58.63248
1921,58.63248
1922,58.63248
1923,57.63126
1924,57.63126
1925,56.605618
1926,56.605618
1927,56.605618
1928,55.579975
1929,55.579975
1930,54.578754
1931,54.578754
1932,53.724056
1933,53.724056
1934,53.724056
1935,52.967033
1936,52.967033
1937,52.234432
1938,52.234432
1939,52.234432
1940,51.50183
1941,51.50183
1942,50.818073
1943,50.818073
1944,50.18315
1945,50.18315
1946,50.18315
1947,49.54823
1948,49.54823
1949,48.91331
1950,48.91331
1951,48.91331
1952,48.35165
1953,48.35165
1954,47.78999
1955,47.78999
1956,47.30159
1957,47.30159
1958,47.30159
1959,46.95971
1960,46.95971
1961,46.691086
1962,46.691086
1963,46.691086
1964,46.495728
1965,46.495728
1966,46.34921
1967,46.34921
1968,46.227108
1969,46.227108
1970,46.227108
1971,46.129425
1972,46.129425
1973,45.860806
1974,45.860806
1975,45.860806
1976,45.445667
1977,45.445667
1978,44.981686
1979,44.981686
1980,44.371185
1981,44.371185
1982,44.371185
1983,43.663006
1984,43.663006
1985,42.930405
1986,42.930405
1987,42.930405
1988,42.246643
1989,42.246643
1990,41.587303
1991,41.587303
1992,41.12332
1993,41.12332
1994,41.12332
1995,40.83028
1996,40.83028
1997,40.634922
1998,40.634922
1999,40.634922
2000,40.4884
2001,40.4884
2002,40.2442
2003,40.2442
2004,40.0
2005,40.0
2006,40.0
2007,39.78022
2008,39.78022
2009,39.43834
2010,39.43834
2011,39.43834
2012,38.99878
2013,38.99878
2014,38.55922
2015,38.55922
2016,38.095238
2017,38.095238
2018,38.095238
2019,37.582417
2020,37.582417
2021,37.16728
2022,37.16728
2023,37.16728
2024,36.84982
2025,36.84982
2026,36.654457
2027,36.654457
2028,36.556778
2029,36.556778
2030,36.556778
2031,36.50794
2032,36.50794
2033,36.532356
2034,36.532356
2035,36.532356
2036,36.581196
2037,36.581196
2038,36.556778
2039,36.556778
2040,36.410255
2041,36.410255
2042,36.410255
2043,36.117218
2044,36.117218
2045,35.750916
2046,35.750916
2047,35.750916
2048,35.311356
2049,35.311356
2050,34.822956
2051,34.822956
2052,34.456654
2053,34.456654
2054,34.456654
2055,34.236874
2056,34.236874
2057,34.017094
2058,34.017094
2059,34.017094
2060,33.919415
2061,33.919415
2062,33.968254
2063,33.968254
2064,34.090355
2065,34.090355
2066,34.090355
2067,34.188034
2068,34.188034
2069,34.188034
2070,34.188034
2071,34.188034
2072,34.188034
2073,34.188034
2074,34.285713
2075,34.285713
2076,34.554337
2077,34.554337
2078,34.554337
2079,35.238094
2080,35.238094
2081,36.361416
2082,36.361416
2083,36.361416
2084,38.02198
2085,38.02198
2086,40.39072
2087,40.39072
2088,43.369965
2089,43.369965
2090,43.369965
2091,46.764347
2092,46.764347
2093,50.37851
2094,50.37851
2095,50.37851
2096,53.968254
2097,53.968254
2098,57.216118
2099,57.216118
2100,60.195362
2101,60.195362
2102,60.195362
2103,62.710625
2104,62.710625
2105,64.54212
2106,64.54212
2107,64.54212
2108,65.73871
2109,65.73871
2110,66.37363
2111,66.37363
2112,66.64225
2113,66.64225
2114,66.64225
2115,66.568985
2116,66.568985
2117,66.349205
2118,66.349205
2119,66.349205
2120,66.10501
2121,66.10501
2122,65.88522
2123,65.88522
2124,65.71429
2125,65.71429
2126,65.71429
2127,65.592186
2128,65.592186
2129,65.567764
2130,65.567764
2131,65.567764
2132,65.567764
2133,65.567764
2134,65.51893
2135,65.51893
2136,65.39683
2137,65.39683
2138,65.39683
2139,65.17705
2140,65.17705
2141,64.98169
2142,64.98169
2143,64.98169
2144,64.66422
2145,64.66422
2146,64.17583
2147,64.17583
2148,63.614166
2149,63.614166
2150,63.614166
2151,63.028084
2152,63.028084
2153,62.417583
2154,62.417583
2155,62.417583
2156,61.709404
2157,61.709404
2158,61.00122
2159,61.00122
2160,60.26862
2161,60.26862
2162,60.26862
2163,59.48718
2164,59.48718
2165,58.68132
2166,58.68132
2167,58.68132
2168,57.85104
2169,57.85104
2170,57.0696
2171,57.0696
2172,56.263737
2173,56.263737
2174,56.263737
2175,55.311356
2176,55.311356
2177,54.407814
2178,54.407814
2179,54.407814
2180,53.577534
2181,53.577534
2182,52.747253
2183,52.747253
2184,52.014652
2185,52.014652
2186,52.014652
2187,51.379734
2188,51.379734
2189,50.84249
2190,50.84249
2191,50.84249
2192,50.476192
2193,50.476192
2194,50.207573
2195,50.207573
2196,50.01221
2197,50.01221
2198,50.01221
2199,49.84127
2200,49.84127
2201,49.645912
2202,49.645912
2203,49.645912
2204,49.35287
2205,49.35287
2206,48.98657
2207,48.98657
2208,48.57143
2209,48.57143
2210,48.57143
2211,48.05861
2212,48.05861
2213,47.472527
2214,47.472527
2215,47.472527
2216,46.813187
2217,46.813187
2218,46.129425
2219,46.129425
2220,45.518925
2221,45.518925
2222,45.518925
2223,44.932846
2224,44.932846
2225,44.371185
2226,44.371185
2227,44.371185
2228,43.931625
2229,43.931625
2230,43.565323
2231,43.565323
2232,43.101345
2233,43.101345
2234,43.101345
2235,42.661785
2236,42.661785
2237,42.22222
2238,42.22222
2239,42.22222
2240,41.61172
2241,41.61172
2242,40.87912
2243,40.87912
2244,40.09768
2245,40.09768
2246,40.09768
2247,39.2674
2248,39.2674
2249,38.46154
2250,38.46154
2251,38.46154
2252,37.753357
2253,37.753357
2254,37.11844
2255,37.11844
2256,36.630035
2257,36.630035
2258,36.630035
2259,36.28816
2260,36.28816
2261,36.019535
2262,36.019535
2263,36.019535
2264,35.848595
2265,35.848595
2266,35.702076
2267,35.702076
2268,35.506718
2269,35.506718
2270,35.506718
2271,35.238094
2272,35.238094
2273,34.847374
2274,34.847374
2275,34.847374
2276,34.212456
2277,34.212456
2278,33.431015
2279,33.431015
2280,32.625153
2281,32.625153
2282,32.625153
2283,31.819292
2284,31.819292
2285,31.037851
2286,31.037851
2287,31.037851
2288,30.378511
2289,30.378511
2290,29.93895
2291,29.93895
2292,29.67033
2293,29.67033
2294,29.67033
2295,29.54823
2296,29.54823
2297,29.42613
2298,29.42613
2299,29.42613
2300,29.32845
2301,29.32845
2302,29.32845
2303,29.32845
2304,29.47497
2305,29.47497
2306,29.47497
2307,29.987791
2308,29.987791
2309,31.208792
2310,31.208792
2311,31.208792
2312,33.040295
2313,33.040295
2314,35.409035
2315,35.409035
2316,38.46154
2317,38.46154
2318,38.46154
2319,42.100124
2320,42.100124
2321,45.95849
2322,45.95849
2323,45.95849
2324,49.76801
2325,49.76801
2326,53.455433
2327,53.455433
2328,56.776558
2329,56.776558
2330,56.776558
2331,59.65812
2332,59.65812
2333,62.22222
2334,62.22222
2335,62.22222
2336,64.29793
2337,64.29793
2338,65.83639
2339,65.83639
2340,66.93529
2341,66.93529
2342,66.93529
2343,67.76557
2344,67.76557
2345,68.229546
2346,68.229546
2347,68.229546
2348,68.35165
2349,68.35165
2350,68.30281
2351,68.30281
2352,68.10745
2353,68.10745
2354,68.10745
2355,67.86325
2356,67.86325
2357,67.570206
2358,67.570206
2359,67.570206
2360,67.30159
2361,67.30159
2362,67.10623
2363,67.10623
2364,66.81319
2365,66.81319
2366,66.81319
2367,66.39805
2368,66.39805
2369,66.031746
2370,66.031746
2371,66.031746
2372,65.567764
2373,65.567764
2374,65.030525
2375,65.030525
2376,64.44444
2377,64.44444
2378,64.44444
2379,63.711845
2380,63.711845
2381,62.905983
2382,62.905983
2383,62.905983
2384,62.051285
2385,62.051285
2386,61.098904
2387,61.098904
2388,60.07326
2389,60.07326
2390,60.07326
2391,59.07204
2392,59.07204
2393,58.0464
2394,58.0464
2395,58.0464
2396,56.9475
2397,56.9475
2398,55.750916
2399,55.750916
2400,54.529915
2401,54.529915
2402,54.529915
2403,53.211235
2404,53.211235
2405,51.89255
2406,51.89255
2407,51.89255
2408,50.744812
2409,50.744812
2410,49.84127
2411,49.84127
2412,49.20635
2413,49.20635
2414,49.20635
2415,48.71795
2416,48.71795
2417,48.40049
2418,48.40049
2419,48.40049
2420,48.30281
2421,48.30281
2422,48.424908
2423,48.424908
2424,48.76679
2425,48.76679
2426,48.76679
2427,49.25519
2428,49.25519
2429,49.76801
2430,49.76801
2431,49.76801
2432,50.32967
2433,50.32967
2434,50.94017
2435,50.94017
2436,51.404152
2437,51.404152
2438,51.404152
2439,51.746033
2440,51.746033
2441,51.916973
2442,51.916973
2443,51.916973
2444,51.746033
2445,51.746033
2446,51.355312
2447,51.355312
2448,50.94017
2449,50.94017
2450,50.94017
2451,50.50061
2452,50.50061
2453,50.10989
2454,50.10989
2455,50.10989
2456,49.81685
2457,49.81685
2458,49.62149
2459,49.62149
2460,49.47497
2461,49.47497
2462,49.47497
2463,49.23077
2464,49.23077
2465,48.93773
2466,48.93773
2467,48.93773
2468,48.52259
2469,48.52259
2470,47.78999
2471,47.78999
2472,46.78877
2473,46.78877
2474,46.78877
2475,45.616608
2476,45.616608
2477,44.371185
2478,44.371185
2479,44.371185
2480,43.125763
2481,43.125763
2482,42.00244
2483,42.00244
2484,41.12332
2485,41.12332
2486,41.12332
2487,40.4884
2488,40.4884
2489,40.0
2490,40.0
2491,40.0
2492,39.53602
2493,39.53602
2494,39.09646
2495,39.09646
2496,38.6569
2497,38.6569
2498,38.6569
2499,38.1685
2500,38.1685
2501,37.60684
2502,37.60684
2503,37.60684
2504,37.045177
2505,37.045177
2506,36.556778
2507,36.556778
2508,36.092796
2509,36.092796
2510,36.092796
2511,35.677658
2512,35.677658
2513,35.433456
2514,35.433456
2515,35.433456
2516,35.311356
2517,35.311356
2518,35.189255
2519,35.189255
2520,35.042736
2521,35.042736
2522,35.042736
2523,34.847374
2524,34.847374
2525,34.676434
2526,34.676434
2527,34.676434
2528,34.578754
2529,34.578754
2530,34.603176
2531,34.603176
2532,34.749695
2533,34.749695
2534,34.749695
2535,35.140415
2536,35.140415
2537,36.043957
2538,36.043957
2539,36.043957
2540,37.558
2541,37.558
2542,39.65812
2543,39.65812
2544,42.271065
2545,42.271065
2546,42.271065
2547,45.372406
2548,45.372406
2549,48.644688
2550,48.644688
2551,48.644688
2552,51.94139
2553,51.94139
2554,55.164837
2555,55.164837
2556,58.02198
2557,58.02198
2558,58.02198
2559,60.2442
2560,60.2442
2561,61.904762
2562,61.904762
2563,61.904762
2564,63.125763
2565,63.125763
2566,63.907204
2567,63.907204
2568,64.29793
2569,64.29793
2570,64.29793
2571,64.371185
2572,64.371185
2573,64.22466
2574,64.22466
2575,64.22466
2576,64.00488
2577,64.00488
2578,63.858364
2579,63.858364
2580,63.785107
2581,63.785107
2582,63.785107
2583,63.736263
2584,63.736263
2585,63.711845
2586,63.711845
2587,63.711845
2588,63.663006
2589,63.663006
2590,63.589745
2591,63.589745
2592,63.418804
2593,63.418804
2594,63.418804
2595,63.125763
2596,63.125763
2597,62.710625
2598,62.710625
2599,62.710625
2600,62.22222
2601,62.22222
2602,61.758244
2603,61.758244
2604,61.269844
2605,61.269844
2606,61.269844
2607,60.65934
2608,60.65934
2609,59.95116
2610,59.95116
2611,59.95116
2612,59.2674
2613,59.2674
2614,58.60806
2615,58.60806
2616,57.85104
2617,57.85104
2618,57.85104
2619,56.996338
2620,56.996338
2621,56.06838
2622,56.06838
2623,56.06838
2624,55.067158
2625,55.067158
2626,54.041515
2627,54.041515
2628,53.040295
2629,53.040295
2630,53.040295
2631,52.039074
2632,52.039074
2633,51.11111
2634,51.11111
2635,51.11111
2636,50.32967
2637,50.32967
2638,49.71917
2639,49.71917
2640,49.23077
2641,49.23077
2642,49.23077
2643,48.79121
2644,48.79121
2645,48.40049
2646,48.40049
2647,48.40049
2648,48.13187
2649,48.13187
2650,48.08303
2651,48.08303
2652,48.05861
2653,48.05861
2654,48.05861
2655,47.863247
2656,47.863247
2657,47.66789
2658,47.66789
2659,47.66789
2660,47.472527
2661,47.472527
2662,47.106228
2663,47.106228
2664,46.593407
2665,46.593407
2666,46.593407
2667,46.056168
2668,46.056168
2669,45.543346
2670,45.543346
2671,45.543346
2672,44.981686
2673,44.981686
2674,44.420025
2675,44.420025
2676,43.931625
2677,43.931625
2678,43.931625
2679,43.467644
2680,43.467644
2681,43.003662
2682,43.003662
2683,43.003662
2684,42.564102
2685,42.564102
2686,42.246643
2687,42.246643
2688,41.978024
2689,41.978024
2690,41.978024
2691,41.709404
2692,41.709404
2693,41.39194
2694,41.39194
2695,41.39194
2696,41.074482
2697,41.074482
2698,40.68376
2699,40.68376
2700,40.26862
2701,40.26862
2702,40.26862
2703,39.8779
2704,39.8779
2705,39.48718
2706,39.48718
2707,39.48718
2708,39.24298
2709,39.24298
2710,39.07204
2711,39.07204
2712,38.97436
2713,38.97436
2714,38.97436
2715,38.97436
2716,38.97436
2717,39.0232
2718,39.0232
2719,39.0232
2720,39.09646
2721,39.09646
2722,39.09646
2723,39.09646
2724,39.04762
2725,39.04762
2726,39.04762
2727,38.925518
2728,38.925518
2729,38.63248
2730,38.63248
2731,38.63248
2732,38.21734
2733,38.21734
2734,37.704517
2735,37.704517
2736,37.11844
2737,37.11844
2738,37.11844
2739,36.556778
2740,36.556778
2741,36.06838
2742,36.06838
2743,36.06838
2744,35.604397
2745,35.604397
2746,35.262516
2747,35.262516
2748,34.993896
2749,34.993896
2750,34.993896
2751,34.700855
2752,34.700855
2753,34.554337
2754,34.554337
2755,34.554337
2756,34.529915
2757,34.529915
2758,34.676434
2759,34.676434
2760,35.286938
2761,35.286938
2762,35.286938
2763,36.410255
2764,36.410255
2765,37.99756
2766,37.99756
2767,37.99756
2768,40.17094
2769,40.17094
2770,42.979244
2771,42.979244
2772,46.251526
2773,46.251526
2774,46.251526
2775,49.71917
2776,49.71917
2777,53.162395
2778,53.162395
2779,53.162395
2780,56.41026
2781,56.41026
2782,59.31624
2783,59.31624
2784,61.8315
2785,61.8315
2786,61.8315
2787,63.760685
2788,63.760685
2789,65.128204
2790,65.128204
2791,65.128204
2792,66.031746
2793,66.031746
2794,66.568985
2795,66.568985
2796,66.73993
2797,66.73993
2798,66.73993
2799,66.61783
2800,66.61783
2801,66.32479
2802,66.32479
2803,66.32479
2804,65.98291
2805,65.98291
2806,65.71429
2807,65.71429
2808,65.470085
2809,65.470085
2810,65.470085
2811,65.22588
2812,65.22588
2813,65.10378
2814,65.10378
2815,65.10378
2816,64.98169
2817,64.98169
2818,64.78632
2819,64.78632
2820,64.54212
2821,64.54212
2822,64.54212
2823,64.20025
2824,64.20025
2825,63.638584
2826,63.638584
2827,63.638584
2828,62.857143
2829,62.857143
2830,61.978024
2831,61.978024
2832,61.00122
2833,61.00122
2834,61.00122
2835,59.926743
2836,59.926743
2837,58.80342
2838,58.80342
2839,58.80342
2840,57.655678
2841,57.655678
2842,56.556778
2843,56.556778
2844,55.45788
2845,55.45788
2846,55.45788
2847,54.383396
2848,54.383396
2849,53.382175
2850,53.382175
2851,53.382175
2852,52.405373
2853,52.405373
2854,51.379734
2855,51.379734
2856,50.427353
2857,50.427353
2858,50.427353
2859,49.57265
2860,49.57265
2861,48.76679
2862,48.76679
2863,48.76679
2864,48.13187
2865,48.13187
2866,47.594627
2867,47.594627
2868,47.106228
2869,47.106228
2870,47.106228
2871,46.715508
2872,46.715508
2873,46.471306
2874,46.471306
2875,46.471306
2876,46.300365
2877,46.300365
2878,46.153847
2879,46.153847
2880,46.007328
2881,46.007328
2882,46.007328
2883,45.934067
2884,45.934067
2885,45.982906
2886,45.982906
2887,45.982906
2888,45.95849
2889,45.95849
2890,45.811966
2891,45.811966
2892,45.518925
2893,45.518925
2894,45.518925
2895,45.054947
2896,45.054947
2897,44.517704
2898,44.517704
2899,44.517704
2900,43.882786
2901,43.882786
2902,43.125763
2903,43.125763
2904,42.368744
2905,42.368744
2906,42.368744
2907,41.684982
2908,41.684982
2909,41.12332
2910,41.12332
2911,41.12332
2912,40.65934
2913,40.65934
2914,40.34188
2915,40.34188
2916,40.195362
2917,40.195362
2918,40.195362
2919,40.1221
2920,40.1221
2921,40.09768
2922,40.09768
2923,40.09768
2924,39.95116
2925,39.95116
2926,39.755802
2927,39.755802
2928,39.60928
2929,39.60928
2930,39.60928
2931,39.43834
2932,39.43834
2933,39.2674
2934,39.2674
2935,39.2674
2936,39.12088
2937,39.12088
2938,38.925518
2939,38.925518
2940,38.705738
2941,38.705738
2942,38.705738
2943,38.60806
2944,38.60806
2945,38.58364
2946,38.58364
2947,38.58364
2948,38.63248
2949,38.63248
2950,38.754578
2951,38.754578
2952,38.82784
2953,38.82784
2954,38.82784
2955,38.85226
2956,38.85226
2957,38.87668
2958,38.87668
2959,38.87668
2960,38.6569
2961,38.6569
2962,38.2906
2963,38.2906
2964,37.875458
2965,37.875458
2966,37.875458
2967,37.46032
2968,37.46032
2969,37.094017
2970,37.094017
2971,37.094017
2972,36.971916
2973,36.971916
2974,37.11844
2975,37.11844
2976,37.6801
2977,37.6801
2978,37.6801
2979,38.82784
2980,38.82784
2981,40.6105
2982,40.6105
2983,40.6105
2984,42.954823
2985,42.954823
2986,45.738705
2987,45.738705
2988,48.93773
2989,48.93773
2990,48.93773
2991,52.11233
2992,52.11233
2993,55.018314
2994,55.018314
2995,55.018314
2996,57.60684
2997,57.60684
2998,59.755802
2999,59.755802
3000,61.367523
3001,61.367523
3002,61.367523
3003,62.564102
3004,62.564102
3005,63.516483
3006,63.516483
3007,63.516483
3008,64.20025
3009,64.20025
3010,64.54212
3011,64.54212
3012,64.713066
3013,64.713066
3014,64.713066
3015,64.83517
3016,64.83517
3017,64.85959
3018,64.85959
3019,64.85959
3020,64.590965
3021,64.590965
3022,64.151405
3023,64.151405
3024,63.687424
3025,63.687424
3026,63.687424
3027,63.174603
3028,63.174603
3029,62.539684
3030,62.539684
3031,62.539684
3032,61.684982
3033,61.684982
3034,60.65934
3035,60.65934
3036,59.46276
3037,59.46276
3038,59.46276
3039,58.144077
3040,58.144077
3041,56.72772
3042,56.72772
3043,56.72772
3044,55.311356
3045,55.311356
3046,53.919415
3047,53.919415
3048,52.527473
3049,52.527473
3050,52.527473
3051,51.257633
3052,51.257633
3053,50.036633
3054,50.036633
3055,50.036633
3056,48.84005
3057,48.84005
3058,47.594627
3059,47.594627
3060,46.34921
3061,46.34921
3062,46.34921
3063,45.177048
3064,45.177048
3065,44.053726
3066,44.053726
3067,44.053726
3068,43.125763
3069,43.125763
3070,42.39316
3071,42.39316
3072,41.807083
3073,41.807083
3074,41.807083
3075,41.51404
3076,41.51404
3077,41.587303
3078,41.587303
3079,41.587303
3080,41.904762
3081,41.904762
3082,42.368744
3083,42.368744
3084,42.979244
3085,42.979244
3086,42.979244
3087,43.540905
3088,43.540905
3089,44.053726
3090,44.053726
3091,44.053726
3092,44.444447
3093,44.444447
3094,44.737484
3095,44.737484
3096,44.932846
3097,44.932846
3098,44.932846
3099,45.152626
3100,45.152626
3101,45.445667
3102,45.445667
3103,45.445667
3104,45.689865
3105,45.689865
3106,45.909645
3107,45.909645
3108,46.056168
3109,46.056168
3110,46.056168
3111,46.202686
3112,46.202686
3113,46.34921
3114,46.34921
3115,46.34921
3116,46.471306
3117,46.471306
3118,46.642246
3119,46.642246
3120,46.813187
3121,46.813187
3122,46.813187
3123,46.91087
3124,46.91087
3125,46.91087
3126,46.91087
3127,46.91087
3128,46.862026
3129,46.862026
3130,46.666668
3131,46.666668
3132,46.34921
3133,46.34921
3134,46.34921
3135,45.934067
3136,45.934067
3137,45.470085
3138,45.470085
3139,45.470085
3140,44.957264
3141,44.957264
3142,44.395607
3143,44.395607
3144,43.785103
3145,43.785103
3146,43.785103
3147,43.174603
3148,43.174603
3149,42.588524
3150,42.588524
3151,42.588524
3152,42.026863
3153,42.026863
3154,41.489624
3155,41.489624
3156,40.95238
3157,40.95238
3158,40.95238
3159,40.415142
3160,40.415142
3161,39.92674
3162,39.92674
3163,39.92674
3164,39.46276
3165,39.46276
3166,39.0232
3167,39.0232
3168,38.6569
3169,38.6569
3170,38.6569
3171,38.315018
3172,38.315018
3173,37.875458
3174,37.875458
3175,37.875458
3176,37.435898
3177,37.435898
3178,37.094017
3179,37.094017
3180,36.874237
3181,36.874237
3182,36.874237
3183,36.971916
3184,36.971916
3185,37.46032
3186,37.46032
3187,37.46032
3188,38.33944
3189,38.33944
3190,39.90232
3191,39.90232
3192,42.22222
3193,42.22222
3194,42.22222
3195,45.079365
3196,45.079365
3197,48.32723
3198,48.32723
3199,48.32723
3200,51.794872
3201,51.794872
3202,55.067158
3203,55.067158
3204,58.11966
3205,58.11966
3206,58.11966
3207,60.95238
3208,60.95238
3209,63.345543
3210,63.345543
3211,63.345543
3212,65.20147
3213,65.20147
3214,66.59341
3215,66.59341
3216,67.61905
3217,67.61905
3218,67.61905
3219,68.25397
3220,68.25397
3221,68.52259
3222,68.52259
3223,68.52259
3224,68.52259
3225,68.52259
3226,68.40049
3227,68.40049
3228,68.20513
3229,68.20513
3230,68.20513
3231,67.96093
3232,67.96093
3233,67.789986
3234,67.789986
3235,67.789986
3236,67.61905
3237,67.61905
3238,67.54579
3239,67.54579
3240,67.61905
3241,67.61905
3242,67.61905
3243,67.76557
3244,67.76557
3245,67.83883
3246,67.83883
3247,67.83883
3248,67.76557
3249,67.76557
3250,67.47253
3251,67.47253
3252,66.88645
3253,66.88645
3254,66.88645
3255,66.05617
3256,66.05617
3257,64.95727
3258,64.95727
3259,64.95727
3260,63.589745
3261,63.589745
3262,62.100124
3263,62.100124
3264,60.634922
3265,60.634922
3266,60.634922
3267,59.2674
3268,59.2674
3269,58.0464
3270,58.0464
3271,58.0464
3272,56.89866
3273,56.89866
3274,55.824177
3275,55.824177
3276,54.896217
3277,54.896217
3278,54.896217
3279,54.114777
3280,54.114777
3281,53.455433
3282,53.455433
3283,53.455433
3284,52.869354
3285,52.869354
3286,52.307693
3287,52.307693
3288,51.794872
3289,51.794872
3290,51.794872
3291,51.355312
3292,51.355312
3293,50.915752
3294,50.915752
3295,50.915752
3296,50.476192
3297,50.476192
3298,49.98779
3299,49.98779
3300,49.40171
3301,49.40171
3302,49.40171
3303,48.79121
3304,48.79121
3305,48.205128
3306,48.205128
3307,48.205128
3308,47.643467
3309,47.643467
3310,47.106228
3311,47.106228
3312,46.61783
3313,46.61783
3314,46.61783
3315,46.153847
3316,46.153847
3317,45.641026
3318,45.641026
3319,45.641026
3320,45.128204
3321,45.128204
3322,44.639805
3323,44.639805
3324,44.175823
3325,44.175823
3326,44.175823
3327,43.736263
3328,43.736263
3329,43.345543
3330,43.345543
3331,43.345543
3332,42.979244
3333,42.979244
3334,42.637363
3335,42.637363
3336,42.368744
3337,42.368744
3338,42.368744
3339,42.17338
3340,42.17338
3341,41.9536
3342,41.9536
3343,41.9536
3344,41.636143
3345,41.636143
3346,41.26984
3347,41.26984
3348,40.854702
3349,40.854702
3350,40.854702
3351,40.39072
3352,40.39072
3353,39.92674
3354,39.92674
3355,39.92674
3356,39.58486
3357,39.58486
3358,39.29182
3359,39.29182
3360,39.04762
3361,39.04762
3362,39.04762
3363,38.82784
3364,38.82784
3365,38.6569
3366,38.6569
3367,38.6569
3368,38.55922
3369,38.55922
3370,38.48596
3371,38.48596
3372,38.43712
3373,38.43712
3374,38.43712
3375,38.4127
3376,38.4127
3377,38.4127
3378,38.4127
3379,38.4127
3380,38.4127
3381,38.4127
3382,38.315018
3383,38.315018
3384,37.99756
3385,37.99756
3386,37.99756
3387,37.484737
3388,37.484737
3389,36.923077
3390,36.923077
3391,36.923077
3392,36.361416
3393,36.361416
3394,36.092796
3395,36.092796
3396,36.214897
3397,36.214897
3398,36.214897
3399,36.825397
3400,36.825397
3401,38.144077
3402,38.144077
3403,38.144077
3404,40.29304
3405,40.29304
3406,43.101345
3407,43.101345
3408,46.422466
3409,46.422466
3410,46.422466
3411,50.085472
3412,50.085472
3413,53.577534
3414,53.577534
3415,53.577534
3416,56.825397
3417,56.825397
3418,59.706963
3419,59.706963
3420,61.9536
3421,61.9536
3422,61.9536
3423,63.687424
3424,63.687424
3425,64.908424
3426,64.908424
3427,64.908424
3428,65.88522
3429,65.88522
3430,66.64225
3431,66.64225
3432,67.20391
3433,67.20391
3434,67.20391
3435,67.69231
3436,67.69231
3437,68.13187
3438,68.13187
3439,68.13187
3440,68.52259
3441,68.52259
3442,68.79121
3443,68.79121
3444,68.93773
3445,68.93773
3446,68.93773
3447,69.010994
3448,69.010994
3449,68.91331
3450,68.91331
3451,68.91331
3452,68.59585
3453,68.59585
3454,68.229546
3455,68.229546
3456,67.81441
3457,67.81441
3458,67.81441
3459,67.25275
3460,67.25275
3461,66.471306
3462,66.471306
3463,66.471306
3464,65.64103
3465,65.64103
3466,64.83517
3467,64.83517
3468,64.00488
3469,64.00488
3470,64.00488
3471,63.101345
3472,63.101345
3473,62.148964
3474,62.148964
3475,62.148964
3476,61.269844
3477,61.269844
3478,60.29304
3479,60.29304
3480,59.1453
3481,59.1453
3482,59.1453
3483,57.89988
3484,57.89988
3485,56.63004
3486,56.63004
3487,56.63004
3488,55.360195
3489,55.360195
3490,54.139194
3491,54.139194
3492,52.918194
3493,52.918194
3494,52.918194
3495,51.819294
3496,51.819294
3497,50.94017
3498,50.94017
3499,50.94017
3500,50.28083
3501,50.28083
3502,49.865692
3503,49.865692
3504,49.52381
3505,49.52381
3506,49.52381
3507,49.35287
3508,49.35287
3509,49.27961
3510,49.27961
3511,49.27961
3512,49.15751
3513,49.15751
3514,49.10867
3515,49.10867
3516,49.08425
3517,49.08425
3518,49.08425
3519,48.88889
3520,48.88889
3521,48.52259
3522,48.52259
3523,48.52259
3524,48.15629
3525,48.15629
3526,47.69231
3527,47.69231
3528,47.13065
3529,47.13065
3530,47.13065
3531,46.56899
3532,46.56899
3533,46.031746
3534,46.031746
3535,46.031746
3536,45.494507
3537,45.494507
3538,45.006107
3539,45.006107
3540,44.542126
3541,44.542126
3542,44.542126
3543,44.078144
3544,44.078144
3545,43.638584
3546,43.638584
3547,43.638584
3548,43.199024
3549,43.199024
3550,42.808304
3551,42.808304
3552,42.417583
3553,42.417583
3554,42.417583
3555,41.9536
3556,41.9536
3557,41.416363
3558,41.416363
3559,41.416363
3560,40.927963
3561,40.927963
3562,40.46398
3563,40.46398
3564,40.02442
3565,40.02442
3566,40.02442
3567,39.65812
3568,39.65812
3569,39.29182
3570,39.29182
3571,39.29182
3572,38.99878
3573,38.99878
3574,38.80342
3575,38.80342
3576,38.6569
3577,38.6569
3578,38.6569
3579,38.48596
3580,38.48596
3581,38.26618
3582,38.26618
3583,38.26618
3584,37.99756
3585,37.99756
3586,37.63126
3587,37.63126
3588,37.24054
3589,37.24054
3590,37.24054
3591,36.89866
3592,36.89866
3593,36.67888
3594,36.67888
3595,36.67888
3596,36.605618
3597,36.605618
3598,36.67888
3599,36.67888
3600,36.752136
3601,36.752136
3602,36.752136
3603,36.800976
3604,36.800976
3605,36.776558
3606,36.776558
3607,36.776558
3608,36.703297
3609,36.703297
3610,36.72772
3611,36.72772
3612,37.045177
3613,37.045177
3614,37.045177
3615,38.095238
3616,38.095238
3617,39.755802
3618,39.755802
3619,39.755802
3620,41.8315
3621,41.8315
3622,44.517704
3623,44.517704
3624,47.765568
3625,47.765568
3626,47.765568
3627,51.28205
3628,51.28205
3629,54.774117
3630,54.774117
3631,54.774117
3632,58.095238
3633,58.095238
3634,61.074482
3635,61.074482
3636,63.663006
3637,63.663006
3638,63.663006
3639,65.811966
3640,65.811966
3641,67.42369
3642,67.42369
3643,67.42369
3644,68.57143
3645,68.57143
3646,69.35287
3647,69.35287
3648,69.84127
3649,69.84127
3650,69.84127
3651,70.03663
3652,70.03663
3653,69.91453
3654,69.91453
3655,69.91453
3656,69.59707
3657,69.59707
3658,69.20635
3659,69.20635
3660,68.79121
3661,68.79121
3662,68.79121
3663,68.37607
3664,68.37607
3665,67.93651
3666,67.93651
3667,67.93651
3668,67.61905
3669,67.61905
3670,67.350426
3671,67.350426
3672,66.93529
3673,66.93529
3674,66.93529
3675,66.52015
3676,66.52015
3677,66.08059
3678,66.08059
3679,66.08059
3680,65.49451
3681,65.49451
3682,64.713066
3683,64.713066
3684,63.833946
3685,63.833946
3686,63.833946
3687,62.905983
3688,62.905983
3689,61.8315
3690,61.8315
3691,61.8315
3692,60.68376
3693,60.68376
3694,59.536022
3695,59.536022
3696,58.2906
3697,58.2906
3698,58.2906
3699,57.142857
3700,57.142857
3701,56.06838
3702,56.06838
3703,56.06838
3704,55.018314
3705,55.018314
3706,54.188034
3707,54.188034
3708,53.504276
3709,53.504276
3710,53.504276
3711,52.942616
3712,52.942616
3713,52.50305
3714,52.50305
3715,52.50305
3716,52.11233
3717,52.11233
3718,51.794872
3719,51.794872
3720,51.50183
3721,51.50183
3722,51.50183
3723,51.086693
3724,51.086693
3725,50.598293
3726,50.598293
3727,50.598293
3728,50.13431
3729,50.13431
3730,49.69475
3731,49.69475
3732,49.30403
3733,49.30403
3734,49.30403
3735,49.035408
3736,49.035408
3737,48.84005
3738,48.84005
3739,48.84005
3740,48.595848
3741,48.595848
3742,48.253967
3743,48.253967
3744,47.814407
3745,47.814407
3746,47.814407
3747,47.22833
3748,47.22833
3749,46.495728
3750,46.495728
3751,46.495728
3752,45.689865
3753,45.689865
3754,44.859585
3755,44.859585
3756,44.053726
3757,44.053726
3758,44.053726
3759,43.321125
3760,43.321125
3761,42.637363
3762,42.637363
3763,42.637363
3764,42.075703
3765,42.075703
3766,41.684982
3767,41.684982
3768,41.367523
3769,41.367523
3770,41.367523
3771,41.098904
3772,41.098904
3773,40.927963
3774,40.927963
3775,40.927963
3776,40.78144
3777,40.78144
3778,40.537243
3779,40.537243
3780,40.2442
3781,40.2442
3782,40.2442
3783,39.8779
3784,39.8779
3785,39.3895
3786,39.3895
3787,39.3895
3788,38.87668
3789,38.87668
3790,38.315018
3791,38.315018
3792,37.77778
3793,37.77778
3794,37.77778
3795,37.362637
3796,37.362637
3797,37.094017
3798,37.094017
3799,37.094017
3800,36.971916
3801,36.971916
3802,36.874237
3803,36.874237
3804,36.874237
3805,36.874237
3806,36.874237
3807,36.874237
3808,36.874237
3809,36.874237
3810,36.874237
3811,36.874237
3812,36.9475
3813,36.9475
3814,36.996338
3815,36.996338
3816,36.89866
3817,36.89866
3818,36.89866
3819,36.67888
3820,36.67888
3821,36.4591
3822,36.4591
3823,36.4591
3824,36.263737
3825,36.263737
3826,36.214897
3827,36.214897
3828,36.4591
3829,36.4591
3830,36.4591
3831,37.0696
3832,37.0696
3833,38.21734
3834,38.21734
3835,38.21734
3836,40.21978
3837,40.21978
3838,42.979244
3839,42.979244
3840,46.153847
3841,46.153847
3842,46.153847
3843,49.645912
3844,49.645912
3845,53.308914
3846,53.308914
3847,53.308914
3848,56.923077
3849,56.923077
3850,60.29304
3851,60.29304
3852,63.199024
3853,63.199024
3854,63.199024
3855,65.42125
3856,65.42125
3857,67.130646
3858,67.130646
3859,67.130646
3860,68.47375
3861,68.47375
3862,69.40171
3863,69.40171
3864,70.012215
3865,70.012215
3866,70.012215
3867,70.451775
3868,70.451775
3869,70.793655
3870,70.793655
3871,70.793655
3872,70.96459
3873,70.96459
3874,70.86691
3875,70.86691
3876,70.64713
3877,70.64713
3878,70.64713
3879,70.32967
3880,70.32967
3881,69.890114
3882,69.890114
3883,69.890114
3884,69.40171
3885,69.40171
3886,68.81563
3887,68.81563
3888,68.18071
3889,68.18071
3890,68.18071
3891,67.59463
3892,67.59463
3893,66.98413
3894,66.98413
3895,66.98413
3896,66.349205
3897,66.349205
3898,65.689865
3899,65.689865
3900,64.95727
3901,64.95727
3902,64.95727
3903,64.20025
3904,64.20025
3905,63.394386
3906,63.394386
3907,63.394386
3908,62.539684
3909,62.539684
3910,61.538464
3911,61.538464
3912,60.26862
3913,60.26862
3914,60.26862
3915,58.9011
3916,58.9011
3917,57.558
3918,57.558
3919,57.558
3920,56.190475
3921,56.190475
3922,54.798534
3923,54.798534
3924,53.553116
3925,53.553116
3926,53.553116
3927,52.478634
3928,52.478634
3929,51.599514
3930,51.599514
3931,51.599514
3932,51.01343
3933,51.01343
3934,50.67155
3935,50.67155
3936,50.50061
3937,50.50061
3938,50.50061
3939,50.37851
3940,50.37851
3941,50.305252
3942,50.305252
3943,50.305252
3944,50.256413
3945,50.256413
3946,50.18315
3947,50.18315
3948,49.93895
3949,49.93895
3950,49.93895
3951,49.54823
3952,49.54823
3953,49.18193
3954,49.18193
3955,49.18193
3956,48.74237
3957,48.74237
3958,48.253967
3959,48.253967
3960,47.78999
3961,47.78999
3962,47.78999
3963,47.39927
3964,47.39927
3965,47.05739
3966,47.05739
3967,47.05739
3968,46.715508
3969,46.715508
3970,46.373627
3971,46.373627
3972,45.982906
3973,45.982906
3974,45.982906
3975,45.616608
3976,45.616608
3977,45.201466
3978,45.201466
3979,45.201466
3980,44.615387
3981,44.615387
3982,43.931625
3983,43.931625
3984,43.247864
3985,43.247864
3986,43.247864
3987,42.588524
3988,42.588524
3989,42.026863
3990,42.026863
3991,42.026863
3992,41.587303
3993,41.587303
3994,41.147743
3995,41.147743
3996,40.757023
3997,40.757023
3998,40.757023
3999,40.51282
4000,40.51282
4001,40.31746
4002,40.31746
4003,40.31746
4004,40.09768
4005,40.09768
4006,39.92674
4007,39.92674
4008,39.755802
4009,39.755802
4010,39.755802
4011,39.48718
4012,39.48718
4013,39.24298
4014,39.24298
4015,39.24298
4016,38.94994
4017,38.94994
4018,38.534798
4019,38.534798
4020,38.0464
4021,38.0464
4022,38.0464
4023,37.582417
4024,37.582417
4025,37.142857
4026,37.142857
4027,37.142857
4028,36.752136
4029,36.752136
4030,36.50794
4031,36.50794
4032,36.336998
4033,36.336998
4034,36.336998
4035,36.166058
4036,36.166058
4037,36.06838
4038,36.06838
4039,36.06838
4040,36.092796
4041,36.092796
4042,36.263737
4043,36.263737
4044,36.630035
4045,36.630035
4046,36.630035
4047,37.38706
4048,37.38706
4049,38.63248
4050,38.63248
4051,38.63248
4052,40.34188
4053,40.34188
4054,42.61294
4055,42.61294
4056,45.396828
4057,45.396828
4058,45.396828
4059,48.49817
4060,48.49817
4061,51.72161
4062,51.72161
4063,51.72161
4064,55.018314
4065,55.018314
4066,58.11966
4067,58.11966
4068,60.927963
4069,60.927963
4070,60.927963
4071,63.369965
4072,63.369965
4073,65.22588
4074,65.22588
4075,65.22588
4076,66.471306
4077,66.471306
4078,67.25275
4079,67.25275
4080,67.71673
4081,67.71673
4082,67.71673
4083,67.86325
4084,67.86325
4085,67.81441
4086,67.81441
4087,67.81441
4088,67.61905
4089,67.61905
4090,67.37485
4091,67.37485
4092,67.17949
4093,67.17949
4094,67.17949
4095,67.008545
4096,67.008545
4097,66.86203
4098,66.86203
4099,66.86203
4100,66.788765
4101,66.788765
4102,66.666664
4103,66.666664
4104,66.37363
4105,66.37363
4106,66.37363
4107,65.93407
4108,65.93407
4109,65.39683
4110,65.39683
4111,65.39683
4112,64.810745
4113,64.810745
4114,64.00488
4115,64.00488
4116,63.125763
4117,63.125763
4118,63.125763
4119,62.197803
4120,62.197803
4121,61.074482
4122,61.074482
4123,61.074482
4124,59.80464
4125,59.80464
4126,58.38828
4127,58.38828
4128,56.923077
4129,56.923077
4130,56.923077
4131,55.433456
4132,55.433456
4133,53.943836
4134,53.943836
4135,53.943836
4136,52.600735
4137,52.600735
4138,51.379734
4139,51.379734
4140,50.32967
4141,50.32967
4142,50.32967
4143,49.54823
4144,49.54823
4145,48.98657
4146,48.98657
4147,48.98657
4148,48.57143
4149,48.57143
4150,48.22955
4151,48.22955
4152,47.88767
4153,47.88767
4154,47.88767
4155,47.643467
4156,47.643467
4157,47.472527
4158,47.472527
4159,47.472527
4160,47.374847
4161,47.374847
4162,47.374847
4163,47.374847
4164,47.374847
4165,47.374847
4166,47.374847
4167,47.374847
4168,47.374847
4169,47.326008
4170,47.326008
4171,47.326008
4172,47.203907
4173,47.203907
4174,47.032967
4175,47.032967
4176,46.642246
4177,46.642246
4178,46.642246
4179,46.080585
4180,46.080585
4181,45.445667
4182,45.445667
4183,45.445667
4184,44.688644
4185,44.688644
4186,43.907204
4187,43.907204
4188,43.247864
4189,43.247864
4190,43.247864
4191,42.710625
4192,42.710625
4193,42.197803
4194,42.197803
4195,42.197803
4196,41.709404
4197,41.709404
4198,41.318684
4199,41.318684
4200,41.00122
4201,41.00122
4202,41.00122
4203,40.68376
4204,40.68376
4205,40.29304
4206,40.29304
4207,40.29304
4208,39.975582
4209,39.975582
4210,39.73138
4211,39.73138
4212,39.3895
4213,39.3895
4214,39.3895
4215,39.09646
4216,39.09646
4217,38.85226
4218,38.85226
4219,38.85226
4220,38.51038
4221,38.51038
4222,38.1685
4223,38.1685
4224,37.8022
4225,37.8022
4226,37.8022
4227,37.33822
4228,37.33822
4229,36.874237
4230,36.874237
4231,36.874237
4232,36.4591
4233,36.4591
4234,36.166058
4235,36.166058
4236,35.848595
4237,35.848595
4238,35.848595
4239,35.506718
4240,35.506718
4241,35.238094
4242,35.238094
4243,35.238094
4244,35.018314
4245,35.018314
4246,34.725277
4247,34.725277
4248,34.358974
4249,34.358974
4250,34.358974
4251,34.017094
4252,34.017094
4253,33.724052
4254,33.724052
4255,33.724052
4256,33.479855
4257,33.479855
4258,33.308914
4259,33.308914
4260,33.260075
4261,33.260075
4262,33.260075
4263,33.504272
4264,33.504272
4265,34.285713
4266,34.285713
4267,34.285713
4268,35.873016
4269,35.873016
4270,38.1685
4271,38.1685
4272,40.90354
4273,40.90354
4274,40.90354
4275,44.126984
4276,44.126984
4277,47.66789
4278,47.66789
4279,47.66789
4280,51.28205
4281,51.28205
4282,54.774117
4283,54.774117
4284,57.89988
4285,57.89988
4286,57.89988
4287,60.39072
4288,60.39072
4289,62.344322
4290,62.344322
4291,62.344322
4292,63.882786
4293,63.882786
4294,64.908424
4295,64.908424
4296,65.51893
4297,65.51893
4298,65.51893
4299,65.88522
4300,65.88522
4301,66.05617
4302,66.05617
4303,66.05617
4304,65.98291
4305,65.98291
4306,65.787544
4307,65.787544
4308,65.49451
4309,65.49451
4310,65.49451
4311,64.66422
4312,64.66422
4313,64.249084
4314,64.249084
4315,64.249084
4316,63.858364
4317,63.858364
4318,63.345543
4319,63.345543
4320,63.052505
4321,63.052505
4322,63.052505
4323,62.832726
4324,62.832726
4325,62.637363
4326,62.637363
4327,62.637363
4328,61.978024
4329,61.978024
4330,61.318684
4331,61.318684
4332,60.488403
4333,60.488403
4334,60.488403
4335,58.315018
4336,58.315018
4337,56.996338
4338,56.996338
4339,56.996338
4340,55.677658
4341,55.677658
4342,53.699635
4343,53.699635
4344,52.478634
4345,52.478634
4346,52.478634
4347,51.477413
4348,51.477413
4349,50.695972
4350,50.695972
4351,50.695972
4352,50.085472
4353,50.085472
4354,49.57265
4355,49.57265
4356,49.15751
4357,49.15751
4358,49.15751
4359,48.79121
4360,48.79121
4361,48.424908
4362,48.424908
4363,48.424908
4364,48.034187
4365,48.034187
4366,47.57021
4367,47.57021
4368,47.106228
4369,47.106228
4370,47.106228
4371,46.715508
4372,46.715508
4373,46.34921
4374,46.34921
4375,46.34921
4376,46.031746
4377,46.031746
4378,45.787548
4379,45.787548
4380,45.518925
4381,45.518925
4382,45.518925
4383,45.250305
4384,45.250305
4385,45.006107
4386,45.006107
4387,45.006107
4388,44.737484
4389,44.737484
4390,44.371185
4391,44.371185
4392,43.931625
4393,43.931625
4394,43.931625
4395,43.394382
4396,43.394382
4397,42.735043
4398,42.735043
4399,42.735043
4400,41.9536
4401,41.9536
4402,41.12332
4403,41.12332
4404,40.366302
4405,40.366302
4406,40.366302
4407,39.78022
4408,39.78022
4409,39.3895
4410,39.3895
4411,39.3895
4412,39.24298
4413,39.24298
4414,39.21856
4415,39.21856
4416,39.19414
4417,39.19414
4418,39.19414
4419,39.19414
4420,39.19414
4421,39.09646
4422,39.09646
4423,39.09646
4424,38.94994
4425,38.94994
4426,38.754578
4427,38.754578
4428,38.43712
4429,38.43712
4430,38.43712
4431,38.0464
4432,38.0464
4433,37.63126
4434,37.63126
4435,37.63126
4436,37.264957
4437,37.264957
4438,36.9475
4439,36.9475
4440,36.703297
4441,36.703297
4442,36.703297
4443,36.483517
4444,36.483517
4445,36.312576
4446,36.312576
4447,36.312576
4448,36.239315
4449,36.239315
4450,36.141636
4451,36.141636
4452,36.043957
4453,36.043957
4454,36.043957
4455,35.921856
4456,35.921856
4457,35.750916
4458,35.750916
4459,35.750916
4460,35.433456
4461,35.433456
4462,35.018314
4463,35.018314
4464,34.529915
4465,34.529915
4466,34.529915
4467,34.017094
4468,34.017094
4469,33.675213
4470,33.675213
4471,33.675213
4472,33.553116
4473,33.553116
4474,33.797314
4475,33.797314
4476,34.676434
4477,34.676434
4478,34.676434
4479,36.385838
4480,36.385838
4481,38.779
4482,38.779
4483,38.779
4484,41.66056
4485,41.66056
4486,45.006107
4487,45.006107
4488,48.49817
4489,48.49817
4490,48.49817
4491,51.94139
4492,51.94139
4493,55.140415
4494,55.140415
4495,55.140415
4496,57.704517
4497,57.704517
4498,59.60928
4499,59.60928
4500,61.00122
4501,61.00122
4502,61.00122
4503,62.075703
4504,62.075703
4505,62.832726
4506,62.832726
4507,62.832726
4508,63.369965
4509,63.369965
4510,63.858364
4511,63.858364
4512,64.32234
4513,64.32234
4514,64.32234
4515,64.713066
4516,64.713066
4517,64.98169
4518,64.98169
4519,64.98169
4520,65.128204
4521,65.128204
4522,65.128204
4523,65.128204
4524,64.95727
4525,64.95727
4526,64.95727
4527,64.54212
4528,64.54212
4529,64.00488
4530,64.00488
4531,64.00488
4532,63.516483
4533,63.516483
4534,63.101345
4535,63.101345
4536,62.710625
4537,62.710625
4538,62.710625
4539,62.295483
4540,62.295483
4541,61.929184
4542,61.929184
4543,61.929184
4544,61.587303
4545,61.587303
4546,61.196583
4547,61.196583
4548,60.708183
4549,60.708183
4550,60.708183
4551,60.02442
4552,60.02442
4553,59.1453
4554,59.1453
4555,59.1453
4556,58.0464
4557,58.0464
4558,56.80098
4559,56.80098
4560,55.409035
4561,55.409035
4562,55.409035
4563,53.894997
4564,53.894997
4565,52.429794
4566,52.429794
4567,52.429794
4568,51.037853
4569,51.037853
4570,49.76801
4571,49.76801
4572,48.74237
4573,48.74237
4574,48.74237
4575,48.00977
4576,48.00977
4577,47.545788
4578,47.545788
4579,47.545788
4580,47.22833
4581,47.22833
4582,47.05739
4583,47.05739
4584,46.984127
4585,46.984127
4586,46.984127
4587,46.886448
4588,46.886448
4589,46.764347
4590,46.764347
4591,46.764347
4592,46.544567
4593,46.544567
4594,46.105007
4595,46.105007
4596,45.56777
4597,45.56777
4598,45.56777
4599,45.079365
4600,45.079365
4601,44.493286
4602,44.493286
4603,44.493286
4604,43.858364
4605,43.858364
4606,43.321125
4607,43.321125
4608,42.83272
4609,42.83272
4610,42.83272
4611,42.368744
4612,42.368744
4613,41.929184
4614,41.929184
4615,41.929184
4616,41.489624
4617,41.489624
4618,41.05006
4619,41.05006
4620,40.6105
4621,40.6105
4622,40.6105
4623,40.195362
4624,40.195362
4625,39.70696
4626,39.70696
4627,39.70696
4628,39.16972
4629,39.16972
4630,38.63248
4631,38.63248
4632,38.095238
4633,38.095238
4634,38.095238
4635,37.60684
4636,37.60684
4637,37.094017
4638,37.094017
4639,37.094017
4640,36.556778
4641,36.556778
4642,36.166058
4643,36.166058
4644,35.970695
4645,35.970695
4646,35.970695
4647,35.873016
4648,35.873016
4649,35.946278
4650,35.946278
4651,35.946278
4652,36.092796
4653,36.092796
4654,36.166058
4655,36.166058
4656,36.214897
4657,36.214897
4658,36.214897
4659,36.166058
4660,36.166058
4661,35.970695
4662,35.970695
4663,35.970695
4664,35.677658
4665,35.677658
4666,35.360195
4667,35.360195
4668,35.067154
4669,35.067154
4670,35.067154
4671,34.871796
4672,34.871796
4673,34.774117
4674,34.774117
4675,34.774117
4676,34.774117
4677,34.774117
4678,34.896217
4679,34.896217
4680,35.091576
4681,35.091576
4682,35.091576
4683,35.335777
4684,35.335777
4685,35.604397
4686,35.604397
4687,35.604397
4688,35.946278
4689,35.946278
4690,36.67888
4691,36.67888
4692,37.82662
4693,37.82662
4694,37.82662
4695,39.3895
4696,39.3895
4697,41.587303
4698,41.587303
4699,41.587303
4700,44.395607
4701,44.395607
4702,47.594627
4703,47.594627
4704,51.06227
4705,51.06227
4706,51.06227
4707,54.529915
4708,54.529915
4709,57.72894
4710,57.72894
4711,57.72894
4712,60.68376
4713,60.68376
4714,63.321125
4715,63.321125
4716,65.347984
4717,65.347984
4718,65.347984
4719,66.73993
4720,66.73993
4721,67.74115
4722,67.74115
4723,67.74115
4724,68.40049
4725,68.40049
4726,68.66911
4727,68.66911
4728,68.62027
4729,68.62027
4730,68.62027
4731,68.42491
4732,68.42491
4733,68.20513
4734,68.20513
4735,68.20513
4736,68.009766
4737,68.009766
4738,67.91209
4739,67.91209
4740,67.91209
4741,67.91209
4742,67.91209
4743,67.96093
4744,67.96093
4745,68.10745
4746,68.10745
4747,68.10745
4748,68.25397
4749,68.25397
4750,68.37607
4751,68.37607
4752,68.35165
4753,68.35165
4754,68.35165
4755,68.08303
4756,68.08303
4757,67.49695
4758,67.49695
4759,67.49695
4760,66.64225
4761,66.64225
4762,65.592186
4763,65.592186
4764,64.249084
4765,64.249084
4766,64.249084
4767,62.759464
4768,62.759464
4769,61.221
4770,61.221
4771,61.221
4772,59.755802
4773,59.755802
4774,58.36386
4775,58.36386
4776,56.996338
4777,56.996338
4778,56.996338
4779,55.726498
4780,55.726498
4781,54.603176
4782,54.603176
4783,54.603176
4784,53.601955
4785,53.601955
4786,52.72283
4787,52.72283
4788,51.94139
4789,51.94139
4790,51.94139
4791,51.28205
4792,51.28205
4793,50.79365
4794,50.79365
4795,50.79365
4796,50.32967
4797,50.32967
4798,49.84127
4799,49.84127
4800,49.37729
4801,49.37729
4802,49.37729
4803,48.84005
4804,48.84005
4805,48.30281
4806,48.30281
4807,48.30281
4808,47.88767
4809,47.88767
4810,47.57021
4811,47.57021
4812,47.27717
4813,47.27717
4814,47.27717
4815,47.032967
4816,47.032967
4817,46.862026
4818,46.862026
4819,46.862026
4820,46.73993
4821,46.73993
4822,46.544567
4823,46.544567
4824,46.275948
4825,46.275948
4826,46.275948
4827,45.885227
4828,45.885227
4829,45.421246
4830,45.421246
4831,45.421246
4832,44.859585
4833,44.859585
4834,44.200245
4835,44.200245
4836,43.516483
4837,43.516483
4838,43.516483
4839,42.905983
4840,42.905983
4841,42.39316
4842,42.39316
4843,42.39316
4844,41.9536
4845,41.9536
4846,41.636143
4847,41.636143
4848,41.39194
4849,41.39194
4850,41.39194
4851,41.098904
4852,41.098904
4853,40.7326
4854,40.7326
4855,40.7326
4856,40.39072
4857,40.39072
4858,40.0
4859,40.0
4860,39.46276
4861,39.46276
4862,39.46276
4863,38.925518
4864,38.925518
4865,38.43712
4866,38.43712
4867,38.43712
4868,37.89988
4869,37.89988
4870,37.362637
4871,37.362637
4872,36.9475
4873,36.9475
4874,36.9475
4875,36.703297
4876,36.703297
4877,36.581196
4878,36.581196
4879,36.581196
4880,36.50794
4881,36.50794
4882,36.483517
4883,36.483517
4884,36.50794
4885,36.50794
4886,36.50794
4887,36.4591
4888,36.4591
4889,36.263737
4890,36.263737
4891,36.263737
4892,36.019535
4893,36.019535
4894,35.677658
4895,35.677658
4896,35.286938
4897,35.286938
4898,35.286938
4899,34.871796
4900,34.871796
4901,34.481075
4902,34.481075
4903,34.481075
4904,34.236874
4905,34.236874
4906,34.285713
4907,34.285713
4908,34.700855
4909,34.700855
4910,34.700855
4911,35.726498
4912,35.726498
4913,37.38706
4914,37.38706
4915,37.38706
4916,39.58486
4917,39.58486
4918,42.466423
4919,42.466423
4920,45.885227
4921,45.885227
4922,45.885227
4923,49.52381
4924,49.52381
4925,53.064713
4926,53.064713
4927,53.064713
4928,56.312576
4929,56.312576
4930,59.0232
4931,59.0232
4932,61.318684
4933,61.318684
4934,61.318684
4935,63.223446
4936,63.223446
4937,64.66422
4938,64.66422
4939,64.66422
4940,65.66544
4941,65.66544
4942,66.30037
4943,66.30037
4944,66.666664
4945,66.666664
4946,66.666664
4947,66.88645
4948,66.88645
4949,67.008545
4950,67.008545
4951,67.008545
4952,66.95971
4953,66.95971
4954,66.88645
4955,66.88645
4956,66.788765
4957,66.788765
4958,66.788765
4959,66.61783
4960,66.61783
4961,66.52015
4962,66.52015
4963,66.52015
4964,66.52015
4965,66.52015
4966,66.52015
4967,66.52015
4968,66.52015
4969,66.52015
4970,66.52015
4971,66.471306
4972,66.471306
4973,66.30037
4974,66.30037
4975,66.30037
4976,66.007324
4977,66.007324
4978,65.42125
4979,65.42125
4980,64.590965
4981,64.590965
4982,64.590965
4983,63.614166
4984,63.614166
4985,62.344322
4986,62.344322
4987,62.344322
4988,60.854702
4989,60.854702
4990,59.29182
4991,59.29182
4992,57.6801
4993,57.6801
4994,57.6801
4995,56.043957
4996,56.043957
4997,54.529915
4998,54.529915
4999,54.529915
5000,53.186813
5001,53.186813
5002,52.014652
5003,52.014652
5004,50.989014
5005,50.989014
5006,50.989014
5007,50.085472
5008,50.085472
5009,49.37729
5010,49.37729
5011,49.37729
5012,48.79121
5013,48.79121
5014,48.27839
5015,48.27839
5016,47.71673
5017,47.71673
5018,47.71673
5019,47.032967
5020,47.032967
5021,46.422466
5022,46.422466
5023,46.422466
5024,45.860806
5025,45.860806
5026,45.347984
5027,45.347984
5028,44.932846
5029,44.932846
5030,44.932846
5031,44.542126
5032,44.542126
5033,44.249084
5034,44.249084
5035,44.249084
5036,43.833946
5037,43.833946
5038,43.296703
5039,43.296703
5040,42.735043
5041,42.735043
5042,42.735043
5043,42.124542
5044,42.124542
5045,41.51404
5046,41.51404
5047,41.51404
5048,40.976803
5049,40.976803
5050,40.4884
5051,40.4884
5052,39.90232
5053,39.90232
5054,39.90232
5055,39.29182
5056,39.29182
5057,38.68132
5058,38.68132
5059,38.68132
5060,38.02198
5061,38.02198
5062,37.38706
5063,37.38706
5064,36.752136
5065,36.752136
5066,36.752136
5067,36.141636
5068,36.141636
5069,35.604397
5070,35.604397
5071,35.604397
5072,35.189255
5073,35.189255
5074,34.822956
5075,34.822956
5076,34.407814
5077,34.407814
5078,34.407814
5079,33.992676
5080,33.992676
5081,33.479855
5082,33.479855
5083,33.479855
5084,32.967033
5085,32.967033
5086,32.50305
5087,32.50305
5088,32.06349
5089,32.06349
5090,32.06349
5091,31.550673
5092,31.550673
5093,31.062271
5094,31.062271
5095,31.062271
5096,30.72039
5097,30.72039
5098,30.378511
5099,30.378511
5100,30.10989
5101,30.10989
5102,30.10989
5103,30.01221
5104,30.01221
5105,29.963371
5106,29.963371
5107,29.963371
5108,29.89011
5109,29.89011
5110,29.74359
5111,29.74359
5112,29.54823
5113,29.54823
5114,29.54823
5115,29.40171
5116,29.40171
5117,29.352869
5118,29.352869
5119,29.352869
5120,29.37729
5121,29.37729
5122,29.67033
5123,29.67033
5124,30.378511
5125,30.378511
5126,30.378511
5127,31.550673
5128,31.550673
5129,33.333332
5130,33.333332
5131,33.333332
5132,35.750916
5133,35.750916
5134,38.63248
5135,38.63248
5136,41.807083
5137,41.807083
5138,41.807083
5139,45.128204
5140,45.128204
5141,48.30281
5142,48.30281
5143,48.30281
5144,51.23321
5145,51.23321
5146,53.894997
5147,53.894997
5148,56.06838
5149,56.06838
5150,56.06838
5151,57.704517
5152,57.704517
5153,58.94994
5154,58.94994
5155,58.94994
5156,59.8779
5157,59.8779
5158,60.51282
5159,60.51282
5160,60.927963
5161,60.927963
5162,60.927963
5163,61.245422
5164,61.245422
5165,61.44078
5166,61.44078
5167,61.44078
5168,61.587303
5169,61.587303
5170,61.709404
5171,61.709404
5172,61.78266
5173,61.78266
5174,61.78266
5175,61.758244
5176,61.758244
5177,61.61172
5178,61.61172
5179,61.61172
5180,61.269844
5181,61.269844
5182,60.83028
5183,60.83028
5184,60.29304
5185,60.29304
5186,60.29304
5187,59.6337
5188,59.6337
5189,58.85226
5190,58.85226
5191,58.85226
5192,58.02198
5193,58.02198
5194,57.24054
5195,57.24054
5196,56.434677
5197,56.434677
5198,56.434677
5199,55.506718
5200,55.506718
5201,54.456654
5202,54.456654
5203,54.456654
5204,53.382175
5205,53.382175
5206,52.234432
5207,52.234432
5208,50.964592
5209,50.964592
5210,50.964592
5211,49.69475
5212,49.69475
5213,48.47375
5214,48.47375
5215,48.47375
5216,47.27717
5217,47.27717
5218,46.129425
5219,46.129425
5220,45.079365
5221,45.079365
5222,45.079365
5223,44.175823
5224,44.175823
5225,43.418804
5226,43.418804
5227,43.418804
5228,42.808304
5229,42.808304
5230,42.417583
5231,42.417583
5232,42.124542
5233,42.124542
5234,42.124542
5235,41.929184
5236,41.929184
5237,41.8315
5238,41.8315
5239,41.8315
5240,41.73382
5241,41.73382
5242,41.51404
5243,41.51404
5244,41.221
5245,41.221
5246,41.221
5247,40.927963
5248,40.927963
5249,40.56166
5250,40.56166
5251,40.56166
5252,40.21978
5253,40.21978
5254,39.85348
5255,39.85348
5256,39.34066
5257,39.34066
5258,39.34066
5259,38.754578
5260,38.754578
5261,38.144077
5262,38.144077
5263,38.144077
5264,37.50916
5265,37.50916
5266,36.923077
5267,36.923077
5268,36.434677
5269,36.434677
5270,36.434677
5271,35.995117
5272,35.995117
5273,35.506718
5274,35.506718
5275,35.506718
5276,34.945057
5277,34.945057
5278,34.407814
5279,34.407814
5280,33.870575
5281,33.870575
5282,33.870575
5283,33.333332
5284,33.333332
5285,32.796093
5286,32.796093
5287,32.796093
5288,32.33211
5289,32.33211
5290,32.039074
5291,32.039074
5292,31.843712
5293,31.843712
5294,31.843712
5295,31.746033
5296,31.746033
5297,31.794872
5298,31.794872
5299,31.794872
5300,31.916973
5301,31.916973
5302,32.087914
5303,32.087914
5304,32.210014
5305,32.210014
5306,32.210014
5307,32.28327
5308,32.28327
5309,32.307693
5310,32.307693
5311,32.307693
5312,32.33211
5313,32.33211
5314,32.234432
5315,32.234432
5316,32.087914
5317,32.087914
5318,32.087914
5319,31.916973
5320,31.916973
5321,31.746033
5322,31.746033
5323,31.746033
5324,31.648352
5325,31.648352
5326,31.550673
5327,31.550673
5328,31.501833
5329,31.501833
5330,31.501833
5331,31.526253
5332,31.526253
5333,31.648352
5334,31.648352
5335,31.648352
5336,31.868132
5337,31.868132
5338,32.258854
5339,32.258854
5340,32.918194
5341,32.918194
5342,32.918194
5343,33.992676
5344,33.992676
5345,35.433456
5346,35.433456
5347,35.433456
5348,37.33822
5349,37.33822
5350,39.82906
5351,39.82906
5352,42.83272
5353,42.83272
5354,42.83272
5355,46.129425
5356,46.129425
5357,49.52381
5358,49.52381
5359,49.52381
5360,52.918194
5361,52.918194
5362,56.06838
5363,56.06838
5364,58.9011
5365,58.9011
5366,58.9011
5367,61.367523
5368,61.367523
5369,63.418804
5370,63.418804
5371,63.418804
5372,64.98169
5373,64.98169
5374,66.08059
5375,66.08059
5376,66.83761
5377,66.83761
5378,66.83761
5379,67.27717
5380,67.27717
5381,67.37485
5382,67.37485
5383,67.37485
5384,67.30159
5385,67.30159
5386,67.10623
5387,67.10623
5388,66.691086
5389,66.691086
5390,66.691086
5391,66.17827
5392,66.17827
5393,65.592186
5394,65.592186
5395,65.592186
5396,65.030525
5397,65.030525
5398,64.56654
5399,64.56654
5400,64.22466
5401,64.22466
5402,64.22466
5403,64.05373
5404,64.05373
5405,63.980465
5406,63.980465
5407,63.980465
5408,63.931625
5409,63.931625
5410,63.785107
5411,63.785107
5412,63.540905
5413,63.540905
5414,63.540905
5415,63.150185
5416,63.150185
5417,62.417583
5418,62.417583
5419,62.417583
5420,61.318684
5421,61.318684
5422,60.0
5423,60.0
5424,58.43712
5425,58.43712
5426,58.43712
5427,56.80098
5428,56.80098
5429,55.335777
5430,55.335777
5431,55.335777
5432,54.017094
5433,54.017094
5434,52.991455
5435,52.991455
5436,52.258854
5437,52.258854
5438,52.258854
5439,51.72161
5440,51.72161
5441,51.355312
5442,51.355312
5443,51.355312
5444,50.989014
5445,50.989014
5446,50.57387
5447,50.57387
5448,50.15873
5449,50.15873
5450,50.15873
5451,49.69475
5452,49.69475
5453,49.25519
5454,49.25519
5455,49.25519
5456,48.815628
5457,48.815628
5458,48.40049
5459,48.40049
5460,47.96093
5461,47.96093
5462,47.96093
5463,47.57021
5464,47.57021
5465,47.17949
5466,47.17949
5467,47.17949
5468,46.666668
5469,46.666668
5470,46.202686
5471,46.202686
5472,45.738705
5473,45.738705
5474,45.738705
5475,45.299145
5476,45.299145
5477,44.932846
5478,44.932846
5479,44.932846
5480,44.468864
5481,44.468864
5482,43.931625
5483,43.931625
5484,43.369965
5485,43.369965
5486,43.369965
5487,42.759464
5488,42.759464
5489,42.197803
5490,42.197803
5491,42.197803
5492,41.758244
5493,41.758244
5494,41.44078
5495,41.44078
5496,41.17216
5497,41.17216
5498,41.17216
5499,40.90354
5500,40.90354
5501,40.68376
5502,40.68376
5503,40.68376
5504,40.51282
5505,40.51282
5506,40.39072
5507,40.39072
5508,40.21978
5509,40.21978
5510,40.21978
5511,39.975582
5512,39.975582
5513,39.6337
5514,39.6337
5515,39.6337
5516,39.09646
5517,39.09646
5518,38.4127
5519,38.4127
5520,37.753357
5521,37.753357
5522,37.753357
5523,37.045177
5524,37.045177
5525,36.385838
5526,36.385838
5527,36.385838
5528,35.824177
5529,35.824177
5530,35.457874
5531,35.457874
5532,35.213676
5533,35.213676
5534,35.213676
5535,34.993896
5536,34.993896
5537,34.847374
5538,34.847374
5539,34.847374
5540,34.774117
5541,34.774117
5542,34.603176
5543,34.603176
5544,34.310135
5545,34.310135
5546,34.310135
5547,33.968254
5548,33.968254
5549,33.650795
5550,33.650795
5551,33.650795
5552,33.357754
5553,33.357754
5554,33.260075
5555,33.260075
5556,33.479855
5557,33.479855
5558,33.479855
5559,34.114773
5560,34.114773
5561,35.335777
5562,35.335777
5563,35.335777
5564,37.28938
5565,37.28938
5566,39.90232
5567,39.90232
5568,42.979244
5569,42.979244
5570,42.979244
5571,46.422466
5572,46.422466
5573,49.89011
5574,49.89011
5575,49.89011
5576,53.211235
5577,53.211235
5578,56.312576
5579,56.312576
5580,58.9011
5581,58.9011
5582,58.9011
5583,60.879124
5584,60.879124
5585,62.417583
5586,62.417583
5587,62.417583
5588,63.492065
5589,63.492065
5590,64.12698
5591,64.12698
5592,64.493286
5593,64.493286
5594,64.493286
5595,64.78632
5596,64.78632
5597,65.152626
5598,65.152626
5599,65.152626
5600,65.49451
5601,65.49451
5602,65.811966
5603,65.811966
5604,66.17827
5605,66.17827
5606,66.17827
5607,66.39805
5608,66.39805
5609,66.471306
5610,66.471306
5611,66.471306
5612,66.39805
5613,66.39805
5614,66.227104
5615,66.227104
5616,65.98291
5617,65.98291
5618,65.98291
5619,65.689865
5620,65.689865
5621,65.42125
5622,65.42125
5623,65.42125
5624,65.152626
5625,65.152626
5626,64.810745
5627,64.810745
5628,64.32234
5629,64.32234
5630,64.32234
5631,63.638584
5632,63.638584
5633,62.881565
5634,62.881565
5635,62.881565
5636,62.00244
5637,62.00244
5638,60.976803
5639,60.976803
5640,59.82906
5641,59.82906
5642,59.82906
5643,58.55922
5644,58.55922
5645,57.28938
5646,57.28938
5647,57.28938
5648,56.06838
5649,56.06838
5650,55.018314
5651,55.018314
5652,54.188034
5653,54.188034
5654,54.188034
5655,53.528694
5656,53.528694
5657,53.089134
5658,53.089134
5659,53.089134
5660,52.918194
5661,52.918194
5662,52.991455
5663,52.991455
5664,53.284492
5665,53.284492
5666,53.284492
5667,53.797314
5668,53.797314
5669,54.383396
5670,54.383396
5671,54.383396
5672,54.896217
5673,54.896217
5674,55.335777
5675,55.335777
5676,55.653236
5677,55.653236
5678,55.653236
5679,55.775337
5680,55.775337
5681,55.775337
5682,55.775337
5683,55.775337
5684,55.677658
5685,55.677658
5686,55.409035
5687,55.409035
5688,55.018314
5689,55.018314
5690,55.018314
5691,54.578754
5692,54.578754
5693,54.139194
5694,54.139194
5695,54.139194
5696,53.601955
5697,53.601955
5698,52.869354
5699,52.869354
5700,52.06349
5701,52.06349
5702,52.06349
5703,51.28205
5704,51.28205
5705,50.427353
5706,50.427353
5707,50.427353
5708,49.47497
5709,49.47497
5710,48.44933
5711,48.44933
5712,47.472527
5713,47.472527
5714,47.472527
5715,46.520145
5716,46.520145
5717,45.518925
5718,45.518925
5719,45.518925
5720,44.468864
5721,44.468864
5722,43.369965
5723,43.369965
5724,42.197803
5725,42.197803
5726,42.197803
5727,41.05006
5728,41.05006
5729,40.0
5730,40.0
5731,40.0
5732,39.145298
5733,39.145298
5734,38.58364
5735,38.58364
5736,38.33944
5737,38.33944
5738,38.33944
5739,38.38828
5740,38.38828
5741,38.534798
5742,38.534798
5743,38.534798
5744,38.55922
5745,38.55922
5746,38.26618
5747,38.26618
5748,37.753357
5749,37.753357
5750,37.753357
5751,37.0696
5752,37.0696
5753,36.214897
5754,36.214897
5755,36.214897
5756,35.384617
5757,35.384617
5758,34.749695
5759,34.749695
5760,34.383396
5761,34.383396
5762,34.383396
5763,34.236874
5764,34.236874
5765,34.285713
5766,34.285713
5767,34.285713
5768,34.432236
5769,34.432236
5770,34.652016
5771,34.652016
5772,34.993896
5773,34.993896
5774,34.993896
5775,35.482296
5776,35.482296
5777,36.190475
5778,36.190475
5779,36.190475
5780,37.264957
5781,37.264957
5782,38.80342
5783,38.80342
5784,40.757023
5785,40.757023
5786,40.757023
5787,42.930405
5788,42.930405
5789,45.152626
5790,45.152626
5791,45.152626
5792,47.374847
5793,47.374847
5794,49.25519
5795,49.25519
5796,50.76923
5797,50.76923
5798,50.76923
5799,51.89255
5800,51.89255
5801,52.405373
5802,52.405373
5803,52.405373
5804,52.380955
5805,52.380955
5806,52.087914
5807,52.087914
5808,51.67277
5809,51.67277
5810,51.67277
5811,51.50183
5812,51.50183
5813,52.014652
5814,52.014652
5815,52.014652
5816,53.089134
5817,53.089134
5818,54.774117
5819,54.774117
5820,57.11844
5821,57.11844
5822,57.11844
5823,59.73138
5824,59.73138
5825,62.344322
5826,62.344322
5827,62.344322
5828,64.76191
5829,64.76191
5830,66.73993
5831,66.73993
5832,68.15629
5833,68.15629
5834,68.15629
5835,69.10867
5836,69.10867
5837,69.76801
5838,69.76801
5839,69.76801
5840,70.20757
5841,70.20757
5842,70.32967
5843,70.32967
5844,70.18315
5845,70.18315
5846,70.18315
5847,69.890114
5848,69.890114
5849,69.32845
5850,69.32845
5851,69.32845
5852,68.44933
5853,68.44933
5854,67.37485
5855,67.37485
5856,66.15385
5857,66.15385
5858,66.15385
5859,64.61539
5860,64.61539
5861,62.588524
5862,62.588524
5863,62.588524
5864,60.2442
5865,60.2442
5866,57.63126
5867,57.63126
5868,54.407814
5869,54.407814
5870,54.407814
5871,50.67155
5872,50.67155
5873,46.73993
5874,46.73993
5875,46.73993
5876,42.857143
5877,42.857143
5878,39.21856
5879,39.21856
5880,35.995117
5881,35.995117
5882,35.995117
5883,33.260075
5884,33.260075
5885,30.91575
5886,30.91575
5887,30.91575
5888,28.962149
5889,28.962149
5890,27.374847
5891,27.374847
5892,26.080587
5893,26.080587
5894,26.080587
5895,25.006105
5896,25.006105
5897,24.175825
5898,24.175825
5899,24.175825
5900,23.492064
5901,23.492064
5902,22.930403
5903,22.930403
5904,22.417583
5905,22.417583
5906,22.417583
5907,21.953602
5908,21.953602
5909,21.782661
5910,21.782661
5911,21.782661
5912,21.953602
5913,21.953602
5914,22.564102
5915,22.564102
5916,23.931623
5917,23.931623
5918,23.931623
5919,26.275948
5920,26.275948
5921,29.30403
5922,29.30403
5923,29.30403
5924,32.893772
5925,32.893772
5926,36.923077
5927,36.923077
5928,40.927963
5929,40.927963
5930,40.927963
5931,44.786327
5932,44.786327
5933,48.253967
5934,48.253967
5935,48.253967
5936,51.11111
5937,51.11111
5938,53.382175
5939,53.382175
5940,55.115997
5941,55.115997
5942,55.115997
5943,56.50794
5944,56.50794
5945,57.558
5946,57.558
5947,57.558
5948,58.4127
5949,58.4127
5950,59.09646
5951,59.09646
5952,59.58486
5953,59.58486
5954,59.58486
5955,59.82906
5956,59.82906
5957,59.58486
5958,59.58486
5959,59.58486
5960,58.9011
5961,58.9011
5962,57.77778
5963,57.77778
5964,56.117218
5965,56.117218
5966,56.117218
5967,54.017094
5968,54.017094
5969,51.697193
5970,51.697193
5971,51.697193
5972,49.25519
5973,49.25519
5974,46.593407
5975,46.593407
5976,43.931625
5977,43.931625
5978,43.931625
5979,41.318684
5980,41.318684
5981,38.80342
5982,38.80342
5983,38.80342
5984,36.703297
5985,36.703297
5986,35.189255
5987,35.189255
5988,34.261295
5989,34.261295
5990,34.261295
5991,34.017094
5992,34.017094
5993,34.627594
5994,34.627594
5995,34.627594
5996,36.092796
5997,36.092796
5998,38.21734
5999,38.21734
6000,40.634922
6001,40.634922
6002,40.634922
6003,43.199024
6004,43.199024
6005,45.787548
6006,45.787548
6007,45.787548
6008,48.18071
6009,48.18071
6010,50.23199
6011,50.23199
6012,51.916973
6013,51.916973
6014,51.916973
6015,53.211235
6016,53.211235
6017,54.163616
6018,54.163616
6019,54.163616
6020,54.847374
6021,54.847374
6022,55.311356
6023,55.311356
6024,55.702076
6025,55.702076
6026,55.702076
6027,56.141636
6028,56.141636
6029,56.605618
6030,56.605618
6031,56.605618
6032,56.971916
6033,56.971916
6034,57.216118
6035,57.216118
6036,57.41148
6037,57.41148
6038,57.41148
6039,57.50916
6040,57.50916
6041,57.435898
6042,57.435898
6043,57.435898
6044,57.33822
6045,57.33822
6046,57.24054
6047,57.24054
6048,57.094017
6049,57.094017
6050,57.094017
6051,56.923077
6052,56.923077
6053,56.654457
6054,56.654457
6055,56.654457
6056,56.263737
6057,56.263737
6058,55.702076
6059,55.702076
6060,54.920635
6061,54.920635
6062,54.920635
6063,53.968254
6064,53.968254
6065,52.967033
6066,52.967033
6067,52.967033
6068,52.06349
6069,52.06349
6070,51.135532
6071,51.135532
6072,50.207573
6073,50.207573
6074,50.207573
6075,49.32845
6076,49.32845
6077,48.54701
6078,48.54701
6079,48.54701
6080,47.83883
6081,47.83883
6082,47.27717
6083,47.27717
6084,46.83761
6085,46.83761
6086,46.83761
6087,46.471306
6088,46.471306
6089,46.202686
6090,46.202686
6091,46.202686
6092,46.007328
6093,46.007328
6094,45.860806
6095,45.860806
6096,45.738705
6097,45.738705
6098,45.738705
6099,45.641026
6100,45.641026
6101,45.445667
6102,45.445667
6103,45.445667
6104,45.128204
6105,45.128204
6106,44.737484
6107,44.737484
6108,44.297924
6109,44.297924
6110,44.297924
6111,43.833946
6112,43.833946
6113,43.418804
6114,43.418804
6115,43.418804
6116,43.028084
6117,43.028084
6118,42.759464
6119,42.759464
6120,42.588524
6121,42.588524
6122,42.588524
6123,42.442
6124,42.442
6125,42.319904
6126,42.319904
6127,42.319904
6128,42.17338
6129,42.17338
6130,41.9536
6131,41.9536
6132,41.684982
6133,41.684982
6134,41.684982
6135,41.416363
6136,41.416363
6137,41.00122
6138,41.00122
6139,41.00122
6140,40.4884
6141,40.4884
6142,39.975582
6143,39.975582
6144,39.53602
6145,39.53602
6146,39.53602
6147,39.16972
6148,39.16972
6149,38.925518
6150,38.925518
6151,38.925518
6152,38.80342
6153,38.80342
6154,38.9011
6155,38.9011
6156,39.19414
6157,39.19414
6158,39.19414
6159,39.70696
6160,39.70696
6161,40.415142
6162,40.415142
6163,40.415142
6164,41.17216
6165,41.17216
6166,41.9536
6167,41.9536
6168,42.710625
6169,42.710625
6170,42.710625
6171,43.345543
6172,43.345543
6173,43.809525
6174,43.809525
6175,43.809525
6176,44.029305
6177,44.029305
6178,43.907204
6179,43.907204
6180,43.443226
6181,43.443226
6182,43.443226
6183,42.710625
6184,42.710625
6185,41.709404
6186,41.709404
6187,41.709404
6188,40.7326
6189,40.7326
6190,39.90232
6191,39.90232
6192,39.3895
6193,39.3895
6194,39.3895
6195,39.48718
6196,39.48718
6197,40.29304
6198,40.29304
6199,40.29304
6200,41.78266
6201,41.78266
6202,43.882786
6203,43.882786
6204,46.520145
6205,46.520145
6206,46.520145
6207,49.47497
6208,49.47497
6209,52.625153
6210,52.625153
6211,52.625153
6212,55.8486
6213,55.8486
6214,58.82784
6215,58.82784
6216,61.294262
6217,61.294262
6218,61.294262
6219,63.345543
6220,63.345543
6221,64.98169
6222,64.98169
6223,64.98169
6224,65.95849
6225,65.95849
6226,66.30037
6227,66.30037
6228,66.15385
6229,66.15385
6230,66.15385
6231,65.71429
6232,65.71429
6233,65.10378
6234,65.10378
6235,65.10378
6236,64.32234
6237,64.32234
6238,63.467644
6239,63.467644
6240,62.759464
6241,62.759464
6242,62.759464
6243,62.246643
6244,62.246643
6245,61.9536
6246,61.9536
6247,61.9536
6248,61.855923
6249,61.855923
6250,61.9536
6251,61.9536
6252,62.197803
6253,62.197803
6254,62.197803
6255,62.515263
6256,62.515263
6257,62.857143
6258,62.857143
6259,62.857143
6260,63.125763
6261,63.125763
6262,63.223446
6263,63.223446
6264,62.930405
6265,62.930405
6266,62.930405
6267,62.22222
6268,62.22222
6269,61.074482
6270,61.074482
6271,61.074482
6272,59.48718
6273,59.48718
6274,57.60684
6275,57.60684
6276,55.604397
6277,55.604397
6278,55.604397
6279,53.577534
6280,53.577534
6281,51.697193
6282,51.697193
6283,51.697193
6284,50.28083
6285,50.28083
6286,49.30403
6287,49.30403
6288,48.815628
6289,48.815628
6290,48.815628
6291,48.84005
6292,48.84005
6293,49.13309
6294,49.13309
6295,49.13309
6296,49.69475
6297,49.69475
6298,50.50061
6299,50.50061
6300,51.23321
6301,51.23321
6302,51.23321
6303,51.746033
6304,51.746033
6305,52.06349
6306,52.06349
6307,52.06349
6308,52.161175
6309,52.161175
6310,51.965813
6311,51.965813
6312,51.526253
6313,51.526253
6314,51.526253
6315,50.989014
6316,50.989014
6317,50.35409
6318,50.35409
6319,50.35409
6320,49.645912
6321,49.645912
6322,48.93773
6323,48.93773
6324,48.253967
6325,48.253967
6326,48.253967
6327,47.61905
6328,47.61905
6329,47.106228
6330,47.106228
6331,47.106228
6332,46.642246
6333,46.642246
6334,46.153847
6335,46.153847
6336,45.616608
6337,45.616608
6338,45.616608
6339,44.981686
6340,44.981686
6341,44.322346
6342,44.322346
6343,44.322346
6344,43.663006
6345,43.663006
6346,43.028084
6347,43.028084
6348,42.368744
6349,42.368744
6350,42.368744
6351,41.758244
6352,41.758244
6353,41.245422
6354,41.245422
6355,41.245422
6356,40.854702
6357,40.854702
6358,40.46398
6359,40.46398
6360,39.975582
6361,39.975582
6362,39.975582
6363,39.43834
6364,39.43834
6365,38.87668
6366,38.87668
6367,38.87668
6368,38.24176
6369,38.24176
6370,37.63126
6371,37.63126
6372,37.16728
6373,37.16728
6374,37.16728
6375,36.84982
6376,36.84982
6377,36.752136
6378,36.752136
6379,36.752136
6380,36.752136
6381,36.752136
6382,36.800976
6383,36.800976
6384,36.825397
6385,36.825397
6386,36.825397
6387,36.752136
6388,36.752136
6389,36.654457
6390,36.654457
6391,36.654457
6392,36.50794
6393,36.50794
6394,36.434677
6395,36.434677
6396,36.605618
6397,36.605618
6398,36.605618
6399,37.264957
6400,37.264957
6401,38.363857
6402,38.363857
6403,38.363857
6404,39.92674
6405,39.92674
6406,42.05128
6407,42.05128
6408,44.639805
6409,44.639805
6410,44.639805
6411,47.57021
6412,47.57021
6413,50.647133
6414,50.647133
6415,50.647133
6416,53.675213
6417,53.675213
6418,56.483517
6419,56.483517
6420,59.12088
6421,59.12088
6422,59.12088
6423,61.465202
6424,61.465202
6425,63.369965
6426,63.369965
6427,63.369965
6428,64.713066
6429,64.713066
6430,65.470085
6431,65.470085
6432,65.71429
6433,65.71429
6434,65.71429
6435,65.44566
6436,65.44566
6437,64.810745
6438,64.810745
6439,64.810745
6440,63.907204
6441,63.907204
6442,63.125763
6443,63.125763
6444,62.783882
6445,62.783882
6446,62.783882
6447,63.052505
6448,63.052505
6449,63.858364
6450,63.858364
6451,63.858364
6452,65.05495
6453,65.05495
6454,66.49573
6455,66.49573
6456,67.81441
6457,67.81441
6458,67.81441
6459,68.76679
6460,68.76679
6461,69.30403
6462,69.30403
6463,69.30403
6464,69.27961
6465,69.27961
6466,68.64469
6467,68.64469
6468,67.54579
6469,67.54579
6470,67.54579
6471,66.05617
6472,66.05617
6473,64.32234
6474,64.32234
6475,64.32234
6476,62.490845
6477,62.490845
6478,60.6105
6479,60.6105
6480,58.73016
6481,58.73016
6482,58.73016
6483,56.971916
6484,56.971916
6485,55.45788
6486,55.45788
6487,55.45788
6488,54.163616
6489,54.163616
6490,53.113552
6491,53.113552
6492,52.405373
6493,52.405373
6494,52.405373
6495,51.965813
6496,51.965813
6497,51.770454
6498,51.770454
6499,51.770454
6500,51.67277
6501,51.67277
6502,51.62393
6503,51.62393
6504,51.50183
6505,51.50183
6506,51.50183
6507,51.306473
6508,51.306473
6509,50.915752
6510,50.915752
6511,50.915752
6512,50.28083
6513,50.28083
6514,49.52381
6515,49.52381
6516,48.644688
6517,48.644688
6518,48.644688
6519,47.74115
6520,47.74115
6521,46.886448
6522,46.886448
6523,46.886448
6524,46.153847
6525,46.153847
6526,45.592186
6527,45.592186
6528,45.079365
6529,45.079365
6530,45.079365
6531,44.615387
6532,44.615387
6533,44.297924
6534,44.297924
6535,44.297924
6536,44.029305
6537,44.029305
6538,43.858364
6539,43.858364
6540,43.858364
6541,43.858364
6542,43.858364
6543,44.102566
6544,44.102566
6545,44.566544
6546,44.566544
6547,44.566544
6548,45.152626
6549,45.152626
6550,45.738705
6551,45.738705
6552,46.031746
6553,46.031746
6554,46.031746
6555,45.934067
6556,45.934067
6557,45.421246
6558,45.421246
6559,45.421246
6560,44.249084
6561,44.249084
6562,42.661785
6563,42.661785
6564,40.976803
6565,40.976803
6566,40.976803
6567,39.34066
6568,39.34066
6569,38.02198
6570,38.02198
6571,38.02198
6572,37.142857
6573,37.142857
6574,36.654457
6575,36.654457
6576,36.556778
6577,36.556778
6578,36.556778
6579,36.703297
6580,36.703297
6581,36.923077
6582,36.923077
6583,36.923077
6584,37.216118
6585,37.216118
6586,37.60684
6587,37.60684
6588,38.095238
6589,38.095238
6590,38.095238
6591,38.6569
6592,38.6569
6593,39.36508
6594,39.36508
6595,39.36508
6596,40.09768
6597,40.09768
6598,40.708183
6599,40.708183
6600,41.26984
6601,41.26984
6602,41.26984
6603,41.78266
6604,41.78266
6605,42.344322
6606,42.344322
6607,42.344322
6608,43.076923
6609,43.076923
6610,44.151405
6611,44.151405
6612,45.641026
6613,45.641026
6614,45.641026
6615,47.545788
6616,47.545788
6617,49.84127
6618,49.84127
6619,49.84127
6620,52.307693
6621,52.307693
6622,54.774117
6623,54.774117
6624,57.11844
6625,57.11844
6626,57.11844
6627,59.09646
6628,59.09646
6629,60.586082
6630,60.586082
6631,60.586082
6632,61.709404
6633,61.709404
6634,62.515263
6635,62.515263
6636,63.052505
6637,63.052505
6638,63.052505
6639,63.467644
6640,63.467644
6641,63.833946
6642,63.833946
6643,63.833946
6644,64.20025
6645,64.20025
6646,64.713066
6647,64.713066
6648,65.32356
6649,65.32356
6650,65.32356
6651,65.93407
6652,65.93407
6653,66.42247
6654,66.42247
6655,66.42247
6656,66.71551
6657,66.71551
6658,66.71551
6659,66.71551
6660,66.42247
6661,66.42247
6662,66.42247
6663,65.86081
6664,65.86081
6665,64.98169
6666,64.98169
6667,64.98169
6668,63.833946
6669,63.833946
6670,62.539684
6671,62.539684
6672,61.269844
6673,61.269844
6674,61.269844
6675,60.07326
6676,60.07326
6677,58.9011
6678,58.9011
6679,58.9011
6680,57.77778
6681,57.77778
6682,56.752136
6683,56.752136
6684,55.726498
6685,55.726498
6686,55.726498
6687,54.578754
6688,54.578754
6689,53.357754
6690,53.357754
6691,53.357754
6692,52.039074
6693,52.039074
6694,50.67155
6695,50.67155
6696,49.42613
6697,49.42613
6698,49.42613
6699,48.27839
6700,48.27839
6701,47.252747
6702,47.252747
6703,47.252747
6704,46.39805
6705,46.39805
6706,45.714287
6707,45.714287
6708,45.225887
6709,45.225887
6710,45.225887
6711,44.932846
6712,44.932846
6713,44.835167
6714,44.835167
6715,44.835167
6716,44.884007
6717,44.884007
6718,45.006107
6719,45.006107
6720,45.225887
6721,45.225887
6722,45.225887
6723,45.56777
6724,45.56777
6725,45.934067
6726,45.934067
6727,45.934067
6728,46.324787
6729,46.324787
6730,46.666668
6731,46.666668
6732,46.73993
6733,46.73993
6734,46.73993
6735,46.373627
6736,46.373627
6737,45.738705
6738,45.738705
6739,45.738705
6740,44.859585
6741,44.859585
6742,43.663006
6743,43.663006
6744,42.197803
6745,42.197803
6746,42.197803
6747,40.6105
6748,40.6105
6749,39.12088
6750,39.12088
6751,39.12088
6752,37.8022
6753,37.8022
6754,36.874237
6755,36.874237
6756,36.312576
6757,36.312576
6758,36.312576
6759,36.239315
6760,36.239315
6761,36.752136
6762,36.752136
6763,36.752136
6764,37.85104
6765,37.85104
6766,39.43834
6767,39.43834
6768,41.3431
6769,41.3431
6770,41.3431
6771,43.369965
6772,43.369965
6773,45.128204
6774,45.128204
6775,45.128204
6776,46.520145
6777,46.520145
6778,47.44811
6779,47.44811
6780,47.643467
6781,47.643467
6782,47.643467
6783,47.081806
6784,47.081806
6785,45.934067
6786,45.934067
6787,45.934067
6788,44.395607
6789,44.395607
6790,42.490845
6791,42.490845
6792,40.415142
6793,40.415142
6794,40.415142
6795,38.26618
6796,38.26618
6797,36.190475
6798,36.190475
6799,36.190475
6800,34.432236
6801,34.432236
6802,33.284492
6803,33.284492
6804,32.72283
6805,32.72283
6806,32.72283
6807,32.698414
6808,32.698414
6809,33.504272
6810,33.504272
6811,33.504272
6812,35.140415
6813,35.140415
6814,37.46032
6815,37.46032
6816,40.29304
6817,40.29304
6818,40.29304
6819,43.589745
6820,43.589745
6821,47.13065
6822,47.13065
6823,47.13065
6824,50.695972
6825,50.695972
6826,54.261295
6827,54.261295
6828,57.58242
6829,57.58242
6830,57.58242
6831,60.56166
6832,60.56166
6833,63.321125
6834,63.321125
6835,63.321125
6836,65.73871
6837,65.73871
6838,67.789986
6839,67.789986
6840,69.42613
6841,69.42613
6842,69.42613
6843,70.671555
6844,70.671555
6845,71.575096
6846,71.575096
6847,71.575096
6848,71.990234
6849,71.990234
6850,71.892555
6851,71.892555
6852,71.47741
6853,71.47741
6854,71.47741
6855,70.91575
6856,70.91575
6857,70.231995
6858,70.231995
6859,70.231995
6860,69.52381
6861,69.52381
6862,68.86447
6863,68.86447
6864,68.13187
6865,68.13187
6866,68.13187
6867,67.20391
6868,67.20391
6869,66.08059
6870,66.08059
6871,66.08059
6872,64.85959
6873,64.85959
6874,63.589745
6875,63.589745
6876,62.344322
6877,62.344322
6878,62.344322
6879,61.318684
6880,61.318684
6881,60.51282
6882,60.51282
6883,60.51282
6884,59.90232
6885,59.90232
6886,59.65812
6887,59.65812
6888,59.82906
6889,59.82906
6890,59.82906
6891,60.21978
6892,60.21978
6893,60.634922
6894,60.634922
6895,60.634922
6896,60.95238
6897,60.95238
6898,60.927963
6899,60.927963
6900,60.56166
6901,60.56166
6902,60.56166
6903,59.82906
6904,59.82906
6905,58.705738
6906,58.705738
6907,58.705738
6908,57.362637
6909,57.362637
6910,55.995117
6911,55.995117
6912,54.749695
6913,54.749695
6914,54.749695
6915,53.699635
6916,53.699635
6917,52.747253
6918,52.747253
6919,52.747253
6920,51.84371
6921,51.84371
6922,50.989014
6923,50.989014
6924,49.93895
6925,49.93895
6926,49.93895
6927,48.66911
6928,48.66911
6929,47.27717
6930,47.27717
6931,47.27717
6932,45.787548
6933,45.787548
6934,44.346764
6935,44.346764
6936,43.125763
6937,43.125763
6938,43.125763
6939,42.246643
6940,42.246643
6941,41.78266
6942,41.78266
6943,41.78266
6944,41.78266
6945,41.78266
6946,42.148964
6947,42.148964
6948,42.710625
6949,42.710625
6950,42.710625
6951,43.321125
6952,43.321125
6953,43.833946
6954,43.833946
6955,43.833946
6956,44.151405
6957,44.151405
6958,44.249084
6959,44.249084
6960,44.151405
6961,44.151405
6962,44.151405
6963,43.882786
6964,43.882786
6965,43.589745
6966,43.589745
6967,43.589745
6968,43.247864
6969,43.247864
6970,42.881565
6971,42.881565
6972,42.490845
6973,42.490845
6974,42.490845
6975,42.100124
6976,42.100124
6977,41.73382
6978,41.73382
6979,41.73382
6980,41.3431
6981,41.3431
6982,40.708183
6983,40.708183
6984,39.78022
6985,39.78022
6986,39.78022
6987,38.779
6988,38.779
6989,37.6801
6990,37.6801
6991,37.6801
6992,36.483517
6993,36.483517
6994,35.311356
6995,35.311356
6996,34.261295
6997,34.261295
6998,34.261295
6999,33.479855
7000,33.479855
7001,33.015873
7002,33.015873
7003,33.015873
7004,32.820515
7005,32.820515
7006,32.820515
7007,32.820515
7008,32.918194
7009,32.918194
7010,32.918194
7011,33.064713
7012,33.064713
7013,33.235653
7014,33.235653
7015,33.235653
7016,33.382175
7017,33.382175
7018,33.528694
7019,33.528694
7020,33.919415
7021,33.919415
7022,33.919415
7023,34.676434
7024,34.676434
7025,35.726498
7026,35.726498
7027,35.726498
7028,37.191696
7029,37.191696
7030,39.16972
7031,39.16972
7032,41.66056
7033,41.66056
7034,41.66056
7035,44.542126
7036,44.542126
7037,47.61905
7038,47.61905
7039,47.61905
7040,50.866913
7041,50.866913
7042,54.065933
7043,54.065933
7044,57.02076
7045,57.02076
7046,57.02076
7047,59.68254
7048,59.68254
7049,61.855923
7050,61.855923
7051,61.855923
7052,63.492065
7053,63.492065
7054,64.66422
7055,64.66422
7056,65.49451
7057,65.49451
7058,65.49451
7059,65.93407
7060,65.93407
7061,66.10501
7062,66.10501
7063,66.10501
7064,66.17827
7065,66.17827
7066,66.227104
7067,66.227104
7068,66.32479
7069,66.32479
7070,66.32479
7071,66.52015
7072,66.52015
7073,66.788765
7074,66.788765
7075,66.788765
7076,67.10623
7077,67.10623
7078,67.42369
7079,67.42369
7080,67.66789
7081,67.66789
7082,67.66789
7083,67.83883
7084,67.83883
7085,67.91209
7086,67.91209
7087,67.91209
7088,67.86325
7089,67.86325
7090,67.66789
7091,67.66789
7092,67.350426
7093,67.350426
7094,67.350426
7095,66.93529
7096,66.93529
7097,66.42247
7098,66.42247
7099,66.42247
7100,65.73871
7101,65.73871
7102,64.884
7103,64.884
7104,63.833946
7105,63.833946
7106,63.833946
7107,62.515263
7108,62.515263
7109,60.95238
7110,60.95238
7111,60.95238
7112,59.2674
7113,59.2674
7114,57.63126
7115,57.63126
7116,56.092796
7117,56.092796
7118,56.092796
7119,54.774117
7120,54.774117
7121,53.601955
7122,53.601955
7123,53.601955
7124,52.551895
7125,52.551895
7126,51.697193
7127,51.697193
7128,51.01343
7129,51.01343
7130,51.01343
7131,50.50061
7132,50.50061
7133,50.207573
7134,50.207573
7135,50.207573
7136,50.13431
7137,50.13431
7138,50.28083
7139,50.28083
7140,50.54945
7141,50.54945
7142,50.54945
7143,50.89133
7144,50.89133
7145,51.33089
7146,51.33089
7147,51.33089
7148,51.648354
7149,51.648354
7150,51.794872
7151,51.794872
7152,51.770454
7153,51.770454
7154,51.770454
7155,51.428574
7156,51.428574
7157,50.89133
7158,50.89133
7159,50.89133
7160,50.28083
7161,50.28083
7162,49.57265
7163,49.57265
7164,48.74237
7165,48.74237
7166,48.74237
7167,47.985348
7168,47.985348
7169,47.30159
7170,47.30159
7171,47.30159
7172,46.593407
7173,46.593407
7174,45.909645
7175,45.909645
7176,45.299145
7177,45.299145
7178,45.299145
7179,44.737484
7180,44.737484
7181,44.175823
7182,44.175823
7183,44.175823
7184,43.638584
7185,43.638584
7186,43.101345
7187,43.101345
7188,42.61294
7189,42.61294
7190,42.61294
7191,42.17338
7192,42.17338
7193,41.78266
7194,41.78266
7195,41.78266
7196,41.51404
7197,41.51404
7198,41.318684
7199,41.318684
7200,41.221
7201,41.221
7202,41.221
7203,41.17216
7204,41.17216
7205,41.147743
7206,41.147743
7207,41.147743
7208,41.196583
7209,41.196583
7210,41.221
7211,41.221
7212,41.221
7213,41.221
7214,41.221
7215,41.17216
7216,41.17216
7217,41.098904
7218,41.098904
7219,41.098904
7220,41.025642
7221,41.025642
7222,40.87912
7223,40.87912
7224,40.68376
7225,40.68376
7226,40.68376
7227,40.415142
7228,40.415142
7229,40.146523
7230,40.146523
7231,40.146523
7232,39.90232
7233,39.90232
7234,39.78022
7235,39.78022
7236,39.8779
7237,39.8779
7238,39.8779
7239,40.29304
7240,40.29304
7241,41.196583
7242,41.196583
7243,41.196583
7244,42.735043
7245,42.735043
7246,44.786327
7247,44.786327
7248,47.27717
7249,47.27717
7250,47.27717
7251,50.13431
7252,50.13431
7253,53.186813
7254,53.186813
7255,53.186813
7256,56.263737
7257,56.263737
7258,59.09646
7259,59.09646
7260,61.51404
7261,61.51404
7262,61.51404
7263,63.467644
7264,63.467644
7265,65.030525
7266,65.030525
7267,65.030525
7268,66.251526
7269,66.251526
7270,66.98413
7271,66.98413
7272,67.25275
7273,67.25275
7274,67.25275
7275,67.25275
7276,67.25275
7277,67.08181
7278,67.08181
7279,67.08181
7280,66.71551
7281,66.71551
7282,66.20269
7283,66.20269
7284,65.61661
7285,65.61661
7286,65.61661
7287,64.95727
7288,64.95727
7289,64.29793
7290,64.29793
7291,64.29793
7292,63.687424
7293,63.687424
7294,63.101345
7295,63.101345
7296,62.661785
7297,62.661785
7298,62.661785
7299,62.344322
7300,62.344322
7301,62.148964
7302,62.148964
7303,62.148964
7304,62.051285
7305,62.051285
7306,62.00244
7307,62.00244
7308,61.880344
7309,61.880344
7310,61.880344
7311,61.538464
7312,61.538464
7313,61.025642
7314,61.025642
7315,61.025642
7316,60.34188
7317,60.34188
7318,59.41392
7319,59.41392
7320,58.26618
7321,58.26618
7322,58.26618
7323,56.971916
7324,56.971916
7325,55.677658
7326,55.677658
7327,55.677658
7328,54.383396
7329,54.383396
7330,53.260075
7331,53.260075
7332,52.28327
7333,52.28327
7334,52.28327
7335,51.428574
7336,51.428574
7337,50.72039
7338,50.72039
7339,50.72039
7340,50.15873
7341,50.15873
7342,49.69475
7343,49.69475
7344,49.27961
7345,49.27961
7346,49.27961
7347,48.88889
7348,48.88889
7349,48.62027
7350,48.62027
7351,48.62027
7352,48.44933
7353,48.44933
7354,48.253967
7355,48.253967
7356,48.05861
7357,48.05861
7358,48.05861
7359,47.91209
7360,47.91209
7361,47.83883
7362,47.83883
7363,47.83883
7364,47.814407
7365,47.814407
7366,47.83883
7367,47.83883
7368,47.91209
7369,47.91209
7370,47.91209
7371,48.034187
7372,48.034187
7373,48.205128
7374,48.205128
7375,48.205128
7376,48.22955
7377,48.22955
7378,48.08303
7379,48.08303
7380,47.78999
7381,47.78999
7382,47.78999
7383,47.374847
7384,47.374847
7385,46.73993
7386,46.73993
7387,46.73993
7388,46.007328
7389,46.007328
7390,45.299145
7391,45.299145
7392,44.615387
7393,44.615387
7394,44.615387
7395,43.833946
7396,43.833946
7397,43.394382
7398,43.394382
7399,43.394382
7400,43.003662
7401,43.003662
7402,42.197803
7403,42.197803
7404,41.807083
7405,41.807083
7406,41.807083
7407,41.44078
7408,41.44078
7409,40.7326
7410,40.7326
7411,40.7326
7412,40.366302
7413,40.366302
7414,40.04884
7415,40.04884
7416,39.43834
7417,39.43834
7418,39.43834
7419,39.07204
7420,39.07204
7421,38.754578
7422,38.754578
7423,38.754578
7424,38.315018
7425,38.315018
7426,38.02198
7427,38.02198
7428,37.82662
7429,37.82662
7430,37.82662
7431,37.6801
7432,37.6801
7433,37.533577
7434,37.533577
7435,37.533577
7436,37.38706
7437,37.38706
7438,37.264957
7439,37.264957
7440,37.142857
7441,37.142857
7442,37.142857
7443,37.142857
7444,37.142857
7445,37.46032
7446,37.46032
7447,37.46032
7448,37.99756
7449,37.99756
7450,38.87668
7451,38.87668
7452,40.29304
7453,40.29304
7454,40.29304
7455,42.295483
7456,42.295483
7457,44.810745
7458,44.810745
7459,44.810745
7460,47.643467
7461,47.643467
7462,50.67155
7463,50.67155
7464,53.650795
7465,53.650795
7466,53.650795
7467,56.4591
7468,56.4591
7469,58.925518
7470,58.925518
7471,58.925518
7472,60.927963
7473,60.927963
7474,62.417583
7475,62.417583
7476,63.467644
7477,63.467644
7478,63.467644
7479,64.273506
7480,64.273506
7481,64.85959
7482,64.85959
7483,64.85959
7484,65.27473
7485,65.27473
7486,65.567764
7487,65.567764
7488,65.76313
7489,65.76313
7490,65.76313
7491,65.909645
7492,65.909645
7493,66.031746
7494,66.031746
7495,66.031746
7496,66.129425
7497,66.129425
7498,66.227104
7499,66.227104
7500,66.27595
7501,66.27595
7502,66.27595
7503,66.30037
7504,66.30037
7505,66.32479
7506,66.32479
7507,66.32479
7508,66.227104
7509,66.227104
7510,65.98291
7511,65.98291
7512,65.689865
7513,65.689865
7514,65.689865
7515,65.32356
7516,65.32356
7517,64.83517
7518,64.83517
7519,64.83517
7520,64.20025
7521,64.20025
7522,63.296703
7523,63.296703
7524,62.197803
7525,62.197803
7526,62.197803
7527,61.05006
7528,61.05006
7529,59.755802
7530,59.755802
7531,59.755802
7532,58.43712
7533,58.43712
7534,57.11844
7535,57.11844
7536,55.8486
7537,55.8486
7538,55.8486
7539,54.725277
7540,54.725277
7541,53.724056
7542,53.724056
7543,53.724056
7544,52.796093
7545,52.796093
7546,52.014652
7547,52.014652
7548,51.355312
7549,51.355312
7550,51.355312
7551,50.818073
7552,50.818073
7553,50.427353
7554,50.427353
7555,50.427353
7556,50.13431
7557,50.13431
7558,49.93895
7559,49.93895
7560,49.76801
7561,49.76801
7562,49.76801
7563,49.54823
7564,49.54823
7565,49.30403
7566,49.30403
7567,49.30403
7568,48.96215
7569,48.96215
7570,48.52259
7571,48.52259
7572,48.08303
7573,48.08303
7574,48.08303
7575,47.594627
7576,47.594627
7577,47.081806
7578,47.081806
7579,47.081806
7580,46.544567
7581,46.544567
7582,46.007328
7583,46.007328
7584,45.56777
7585,45.56777
7586,45.56777
7587,45.128204
7588,45.128204
7589,44.688644
7590,44.688644
7591,44.688644
7592,44.273506
7593,44.273506
7594,43.858364
7595,43.858364
7596,43.418804
7597,43.418804
7598,43.418804
7599,42.979244
7600,42.979244
7601,42.539684
7602,42.539684
7603,42.539684
7604,42.148964
7605,42.148964
7606,41.73382
7607,41.73382
7608,41.318684
7609,41.318684
7610,41.318684
7611,40.927963
7612,40.927963
7613,40.537243
7614,40.537243
7615,40.537243
7616,40.21978
7617,40.21978
7618,40.0
7619,40.0
7620,39.73138
7621,39.73138
7622,39.73138
7623,39.5116
7624,39.5116
7625,39.43834
7626,39.43834
7627,39.43834
7628,39.5116
7629,39.5116
7630,39.58486
7631,39.58486
7632,39.6337
7633,39.6337
7634,39.6337
7635,39.65812
7636,39.65812
7637,39.56044
7638,39.56044
7639,39.56044
7640,39.36508
7641,39.36508
7642,39.09646
7643,39.09646
7644,38.80342
7645,38.80342
7646,38.80342
7647,38.55922
7648,38.55922
7649,38.363857
7650,38.363857
7651,38.363857
7652,38.24176
7653,38.24176
7654,38.11966
7655,38.11966
7656,37.973137
7657,37.973137
7658,37.973137
7659,37.8022
7660,37.8022
7661,37.704517
7662,37.704517
7663,37.704517
7664,37.85104
7665,37.85104
7666,38.4127
7667,38.4127
7668,39.3895
7669,39.3895
7670,39.3895
7671,40.805862
7672,40.805862
7673,42.857143
7674,42.857143
7675,42.857143
7676,45.421246
7677,45.421246
7678,48.22955
7679,48.22955
7680,51.15995
7681,51.15995
7682,51.15995
7683,54.041515
7684,54.041515
7685,56.67888
7686,56.67888
7687,56.67888
7688,59.09646
7689,59.09646
7690,61.196583
7691,61.196583
7692,62.857143
7693,62.857143
7694,62.857143
7695,64.10256
7696,64.10256
7697,65.05495
7698,65.05495
7699,65.05495
7700,65.71429
7701,65.71429
7702,66.08059
7703,66.08059
7704,66.227104
7705,66.227104
7706,66.227104
7707,66.227104
7708,66.227104
7709,66.129425
7710,66.129425
7711,66.129425
7712,65.98291
7713,65.98291
7714,65.86081
7715,65.86081
7716,65.811966
7717,65.811966
7718,65.811966
7719,65.73871
7720,65.73871
7721,65.64103
7722,65.64103
7723,65.64103
7724,65.51893
7725,65.51893
7726,65.29915
7727,65.29915
7728,64.98169
7729,64.98169
7730,64.98169
7731,64.61539
7732,64.61539
7733,64.07815
7734,64.07815
7735,64.07815
7736,63.467644
7737,63.467644
7738,62.857143
7739,62.857143
7740,62.075703
7741,62.075703
7742,62.075703
7743,61.17216
7744,61.17216
7745,60.17094
7746,60.17094
7747,60.17094
7748,58.99878
7749,58.99878
7750,57.753357
7751,57.753357
7752,56.556778
7753,56.556778
7754,56.556778
7755,55.409035
7756,55.409035
7757,54.407814
7758,54.407814
7759,54.407814
7760,53.553116
7761,53.553116
7762,52.820515
7763,52.820515
7764,52.185593
7765,52.185593
7766,52.185593
7767,51.648354
7768,51.648354
7769,51.208794
7770,51.208794
7771,51.208794
7772,50.744812
7773,50.744812
7774,50.23199
7775,50.23199
7776,49.79243
7777,49.79243
7778,49.79243
7779,49.40171
7780,49.40171
7781,49.08425
7782,49.08425
7783,49.08425
7784,48.86447
7785,48.86447
7786,48.76679
7787,48.76679
7788,48.71795
7789,48.71795
7790,48.71795
7791,48.644688
7792,48.644688
7793,48.49817
7794,48.49817
7795,48.49817
7796,48.30281
7797,48.30281
7798,47.96093
7799,47.96093
7800,47.30159
7801,47.30159
7802,47.30159
7803,46.446888
7804,46.446888
7805,45.470085
7806,45.470085
7807,45.470085
7808,44.371185
7809,44.371185
7810,43.272285
7811,43.272285
7812,42.271065
7813,42.271065
7814,42.271065
7815,41.465202
7816,41.465202
7817,40.83028
7818,40.83028
7819,40.83028
7820,40.43956
7821,40.43956
7822,40.2442
7823,40.2442
7824,40.195362
7825,40.195362
7826,40.195362
7827,40.2442
7828,40.2442
7829,40.29304
7830,40.29304
7831,40.29304
7832,40.31746
7833,40.31746
7834,40.31746
7835,40.31746
7836,40.195362
7837,40.195362
7838,40.195362
7839,39.92674
7840,39.92674
7841,39.6337
7842,39.6337
7843,39.6337
7844,39.31624
7845,39.31624
7846,38.925518
7847,38.925518
7848,38.51038
7849,38.51038
7850,38.51038
7851,38.1685
7852,38.1685
7853,37.875458
7854,37.875458
7855,37.875458
7856,37.60684
7857,37.60684
7858,37.313797
7859,37.313797
7860,37.045177
7861,37.045177
7862,37.045177
7863,36.84982
7864,36.84982
7865,36.703297
7866,36.703297
7867,36.703297
7868,36.581196
7869,36.581196
7870,36.410255
7871,36.410255
7872,36.239315
7873,36.239315
7874,36.239315
7875,36.06838
7876,36.06838
7877,36.043957
7878,36.043957
7879,36.043957
7880,36.141636
7881,36.141636
7882,36.361416
7883,36.361416
7884,36.923077
7885,36.923077
7886,36.923077
7887,37.99756
7888,37.99756
7889,39.5116
7890,39.5116
7891,39.5116
7892,41.416363
7893,41.416363
7894,43.711845
7895,43.711845
7896,46.300365
7897,46.300365
7898,46.300365
7899,49.10867
7900,49.10867
7901,51.965813
7902,51.965813
7903,51.965813
7904,54.700855
7905,54.700855
7906,57.16728
7907,57.16728
7908,59.41392
7909,59.41392
7910,59.41392
7911,61.416363
7912,61.416363
7913,63.028084
7914,63.028084
7915,63.028084
7916,64.273506
7917,64.273506
7918,65.250305
7919,65.250305
7920,66.007324
7921,66.007324
7922,66.007324
7923,66.42247
7924,66.42247
7925,66.49573
7926,66.49573
7927,66.49573
7928,66.42247
7929,66.42247
7930,66.20269
7931,66.20269
7932,65.787544
7933,65.787544
7934,65.787544
7935,65.250305
7936,65.250305
7937,64.76191
7938,64.76191
7939,64.76191
7940,64.34676
7941,64.34676
7942,63.980465
7943,63.980465
7944,63.687424
7945,63.687424
7946,63.687424
7947,63.540905
7948,63.540905
7949,63.516483
7950,63.516483
7951,63.516483
7952,63.565323
7953,63.565323
7954,63.540905
7955,63.540905
7956,63.467644
7957,63.467644
7958,63.467644
7959,63.272285
7960,63.272285
7961,62.783882
7962,62.783882
7963,62.783882
7964,61.929184
7965,61.929184
7966,60.708183
7967,60.708183
7968,59.2674
7969,59.2674
7970,59.2674
7971,57.63126
7972,57.63126
7973,55.921856
7974,55.921856
7975,55.921856
7976,54.261295
7977,54.261295
7978,52.796093
7979,52.796093
7980,51.770454
7981,51.770454
7982,51.770454
7983,51.135532
7984,51.135532
7985,50.818073
7986,50.818073
7987,50.818073
7988,50.79365
7989,50.79365
7990,50.89133
7991,50.89133
7992,50.989014
7993,50.989014
7994,50.989014
7995,51.086693
7996,51.086693
7997,51.135532
7998,51.135532
7999,51.135532
8000,51.06227
8001,51.06227
8002,50.915752
8003,50.915752
8004,50.72039
8005,50.72039
8006,50.72039
8007,50.40293
8008,50.40293
8009,49.91453
8010,49.91453
8011,49.91453
8012,49.30403
8013,49.30403
8014,48.62027
8015,48.62027
8016,47.93651
8017,47.93651
8018,47.93651
8019,47.30159
8020,47.30159
8021,46.715508
8022,46.715508
8023,46.715508
8024,46.153847
8025,46.153847
8026,45.641026
8027,45.641026
8028,45.225887
8029,45.225887
8030,45.225887
8031,44.786327
8032,44.786327
8033,44.346764
8034,44.346764
8035,44.346764
8036,43.907204
8037,43.907204
8038,43.467644
8039,43.467644
8040,43.125763
8041,43.125763
8042,43.125763
8043,42.857143
8044,42.857143
8045,42.735043
8046,42.735043
8047,42.735043
8048,42.661785
8049,42.661785
8050,42.588524
8051,42.588524
8052,42.539684
8053,42.539684
8054,42.539684
8055,42.515263
8056,42.515263
8057,42.466423
8058,42.466423
8059,42.466423
8060,42.319904
8061,42.319904
8062,42.124542
8063,42.124542
8064,41.929184
8065,41.929184
8066,41.929184
8067,41.709404
8068,41.709404
8069,41.416363
8070,41.416363
8071,41.416363
8072,41.05006
8073,41.05006
8074,40.65934
8075,40.65934
8076,40.31746
8077,40.31746
8078,40.31746
8079,40.04884
8080,40.04884
8081,39.82906
8082,39.82906
8083,39.82906
8084,39.70696
8085,39.70696
8086,39.6337
8087,39.6337
8088,39.5116
8089,39.5116
8090,39.5116
8091,39.29182
8092,39.29182
8093,39.07204
8094,39.07204
8095,39.07204
8096,38.73016
8097,38.73016
8098,38.363857
8099,38.363857
8100,38.144077
8101,38.144077
8102,38.144077
8103,38.21734
8104,38.21734
8105,38.754578
8106,38.754578
8107,38.754578
8108,39.92674
8109,39.92674
8110,41.66056
8111,41.66056
8112,43.882786
8113,43.882786
8114,43.882786
8115,46.61783
8116,46.61783
8117,49.57265
8118,49.57265
8119,49.57265
8120,52.551895
8121,52.551895
8122,55.311356
8123,55.311356
8124,57.655678
8125,57.655678
8126,57.655678
8127,59.43834
8128,59.43834
8129,60.757023
8130,60.757023
8131,60.757023
8132,61.73382
8133,61.73382
8134,62.319904
8135,62.319904
8136,62.637363
8137,62.637363
8138,62.637363
8139,62.832726
8140,62.832726
8141,62.979244
8142,62.979244
8143,62.979244
8144,63.150185
8145,63.150185
8146,63.321125
8147,63.321125
8148,63.589745
8149,63.589745
8150,63.589745
8151,63.980465
8152,63.980465
8153,64.493286
8154,64.493286
8155,64.493286
8156,65.05495
8157,65.05495
8158,65.592186
8159,65.592186
8160,66.08059
8161,66.08059
8162,66.08059
8163,66.54457
8164,66.54457
8165,66.98413
8166,66.98413
8167,66.98413
8168,67.25275
8169,67.25275
8170,67.32601
8171,67.32601
8172,67.17949
8173,67.17949
8174,67.17949
8175,66.691086
8176,66.691086
8177,65.93407
8178,65.93407
8179,65.93407
8180,64.932846
8181,64.932846
8182,63.687424
8183,63.687424
8184,62.271065
8185,62.271065
8186,62.271065
8187,60.757023
8188,60.757023
8189,59.29182
8190,59.29182
8191,59.29182
8192,57.94872
8193,57.94872
8194,56.703297
8195,56.703297
8196,55.579975
8197,55.579975
8198,55.579975
8199,54.676437
8200,54.676437
8201,53.968254
8202,53.968254
8203,53.968254
8204,53.455433
8205,53.455433
8206,53.260075
8207,53.260075
8208,53.260075
8209,53.260075
8210,53.260075
8211,53.382175
8212,53.382175
8213,53.601955
8214,53.601955
8215,53.601955
8216,53.943836
8217,53.943836
8218,54.334557
8219,54.334557
8220,54.676437
8221,54.676437
8222,54.676437
8223,54.847374
8224,54.847374
8225,54.822956
8226,54.822956
8227,54.822956
8228,54.700855
8229,54.700855
8230,54.358974
8231,54.358974
8232,53.821735
8233,53.821735
8234,53.821735
8235,53.235653
8236,53.235653
8237,52.625153
8238,52.625153
8239,52.625153
8240,52.039074
8241,52.039074
8242,51.526253
8243,51.526253
8244,51.037853
8245,51.037853
8246,51.037853
8247,50.62271
8248,50.62271
8249,50.28083
8250,50.28083
8251,50.28083
8252,49.89011
8253,49.89011
8254,49.47497
8255,49.47497
8256,49.01099
8257,49.01099
8258,49.01099
8259,48.47375
8260,48.47375
8261,47.863247
8262,47.863247
8263,47.863247
8264,47.155067
8265,47.155067
8266,46.39805
8267,46.39805
8268,45.641026
8269,45.641026
8270,45.641026
8271,44.932846
8272,44.932846
8273,44.249084
8274,44.249084
8275,44.249084
8276,43.638584
8277,43.638584
8278,43.076923
8279,43.076923
8280,42.515263
8281,42.515263
8282,42.515263
8283,41.978024
8284,41.978024
8285,41.44078
8286,41.44078
8287,41.44078
8288,40.90354
8289,40.90354
8290,40.366302
8291,40.366302
8292,39.82906
8293,39.82906
8294,39.82906
8295,39.24298
8296,39.24298
8297,38.6569
8298,38.6569
8299,38.6569
8300,38.095238
8301,38.095238
8302,37.533577
8303,37.533577
8304,36.89866
8305,36.89866
8306,36.89866
8307,36.214897
8308,36.214897
8309,35.604397
8310,35.604397
8311,35.604397
8312,35.067154
8313,35.067154
8314,34.725277
8315,34.725277
8316,34.578754
8317,34.578754
8318,34.578754
8319,34.774117
8320,34.774117
8321,35.286938
8322,35.286938
8323,35.286938
8324,36.117218
8325,36.117218
8326,37.50916
8327,37.50916
8328,39.43834
8329,39.43834
8330,39.43834
8331,41.73382
8332,41.73382
8333,44.297924
8334,44.297924
