,ppg
0,46.593407
1,45.470085
2,45.470085
3,45.470085
4,44.420025
5,44.420025
6,43.492065
7,43.492065
8,42.686203
9,42.686203
10,42.686203
11,41.9536
12,41.9536
13,41.3431
14,41.3431
15,41.3431
16,40.854702
17,40.854702
18,40.46398
19,40.46398
20,40.146523
21,40.146523
22,40.146523
23,39.90232
24,39.90232
25,39.755802
26,39.755802
27,39.755802
28,39.65812
29,39.65812
30,39.56044
31,39.56044
32,39.46276
33,39.46276
34,39.46276
35,39.31624
36,39.31624
37,39.12088
38,39.12088
39,39.12088
40,38.97436
41,38.97436
42,38.754578
43,38.754578
44,38.43712
45,38.43712
46,38.43712
47,38.11966
48,38.11966
49,37.82662
50,37.82662
51,37.82662
52,37.46032
53,37.46032
54,37.045177
55,37.045177
56,36.67888
57,36.67888
58,36.67888
59,36.312576
60,36.312576
61,35.921856
62,35.921856
63,35.921856
64,35.482296
65,35.482296
66,35.018314
67,35.018314
68,34.529915
69,34.529915
70,34.529915
71,34.041515
72,34.041515
73,33.528694
74,33.528694
75,33.528694
76,33.064713
77,33.064713
78,32.625153
79,32.625153
80,32.16117
81,32.16117
82,32.16117
83,31.697193
84,31.697193
85,31.208792
86,31.208792
87,31.208792
88,30.72039
89,30.72039
90,30.30525
91,30.30525
92,29.93895
93,29.93895
94,29.93895
95,29.52381
96,29.52381
97,29.13309
98,29.13309
99,29.13309
100,28.766788
101,28.766788
102,28.40049
103,28.40049
104,28.009768
105,28.009768
106,28.009768
107,27.570208
108,27.570208
109,27.130648
110,27.130648
111,27.130648
112,26.691088
113,26.691088
114,26.275948
115,26.275948
116,25.860806
117,25.860806
118,25.860806
119,25.421246
120,25.421246
121,24.981686
122,24.981686
123,24.981686
124,24.590965
125,24.590965
126,24.200245
127,24.200245
128,23.809525
129,23.809525
130,23.809525
131,23.638584
132,23.638584
133,23.711843
134,23.711843
135,23.711843
136,24.175825
137,24.175825
138,25.274725
139,25.274725
140,27.301588
141,27.301588
142,27.301588
143,30.13431
144,30.13431
145,33.553116
146,33.553116
147,33.553116
148,37.60684
149,37.60684
150,41.978024
151,41.978024
152,46.34921
153,46.34921
154,46.34921
155,50.45177
156,50.45177
157,53.968254
158,53.968254
159,53.968254
160,56.67888
161,56.67888
162,58.705738
163,58.705738
164,60.146523
165,60.146523
166,60.146523
167,60.976803
168,60.976803
169,61.269844
170,61.269844
171,61.269844
172,61.245422
173,61.245422
174,60.95238
175,60.95238
176,60.46398
177,60.46398
178,60.46398
179,59.95116
180,59.95116
181,59.43834
182,59.43834
183,59.43834
184,58.9011
185,58.9011
186,58.43712
187,58.43712
188,58.0464
189,58.0464
190,58.0464
191,57.655678
192,57.655678
193,57.313797
194,57.313797
195,57.313797
196,56.996338
197,56.996338
198,56.63004
199,56.63004
200,56.28816
201,56.28816
202,56.28816
203,55.433456
204,55.433456
205,54.871796
206,54.871796
207,54.871796
208,54.261295
209,54.261295
210,53.626373
211,53.626373
212,52.893772
213,52.893772
214,52.893772
215,52.039074
216,52.039074
217,51.11111
218,51.11111
219,51.11111
220,50.085472
221,50.085472
222,48.98657
223,48.98657
224,47.814407
225,47.814407
226,47.814407
227,46.593407
228,46.593407
229,45.347984
230,45.347984
231,45.347984
232,44.151405
233,44.151405
234,43.052505
235,43.052505
236,42.05128
237,42.05128
238,42.05128
239,41.12332
240,41.12332
241,40.415142
242,40.415142
243,40.415142
244,39.92674
245,39.92674
246,39.53602
247,39.53602
248,39.24298
249,39.24298
250,39.24298
251,39.07204
252,39.07204
253,38.9011
254,38.9011
255,38.9011
256,38.779
257,38.779
258,38.73016
259,38.73016
260,38.68132
261,38.68132
262,38.68132
263,38.58364
264,38.58364
265,38.4127
266,38.4127
267,38.4127
268,38.19292
269,38.19292
270,37.89988
271,37.89988
272,37.533577
273,37.533577
274,37.533577
275,37.11844
276,37.11844
277,36.703297
278,36.703297
279,36.703297
280,36.28816
281,36.28816
282,35.799755
283,35.799755
284,35.335777
285,35.335777
286,35.335777
287,34.896217
288,34.896217
289,34.432236
290,34.432236
291,34.432236
292,33.943836
293,33.943836
294,33.455433
295,33.455433
296,32.94261
297,32.94261
298,32.94261
299,32.429794
300,32.429794
301,31.892553
302,31.892553
303,31.892553
304,31.355312
305,31.355312
306,30.818071
307,30.818071
308,30.28083
309,30.28083
310,30.28083
311,29.768011
312,29.768011
313,29.27961
314,29.27961
315,29.27961
316,28.81563
317,28.81563
318,28.42491
319,28.42491
320,28.083029
321,28.083029
322,28.083029
323,27.741148
324,27.741148
325,27.448109
326,27.448109
327,27.448109
328,27.179487
329,27.179487
330,26.935287
331,26.935287
332,26.691088
333,26.691088
334,26.691088
335,26.446886
336,26.446886
337,26.202686
338,26.202686
339,26.202686
340,25.958487
341,25.958487
342,25.689867
343,25.689867
344,25.347986
345,25.347986
346,25.347986
347,25.006105
348,25.006105
349,24.688644
350,24.688644
351,24.688644
352,24.395605
353,24.395605
354,24.200245
355,24.200245
356,24.273504
357,24.273504
358,24.273504
359,24.884005
360,24.884005
361,26.105007
362,26.105007
363,26.105007
364,27.960928
365,27.960928
366,30.69597
367,30.69597
368,34.334557
369,34.334557
370,34.334557
371,38.58364
372,38.58364
373,43.101345
374,43.101345
375,43.101345
376,47.66789
377,47.66789
378,51.819294
379,51.819294
380,55.45788
381,55.45788
382,55.45788
383,58.55922
384,58.55922
385,60.83028
386,60.83028
387,60.83028
388,62.295483
389,62.295483
390,63.174603
391,63.174603
392,63.614166
393,63.614166
394,63.614166
395,63.589745
396,63.589745
397,63.199024
398,63.199024
399,63.199024
400,62.661785
401,62.661785
402,62.051285
403,62.051285
404,61.44078
405,61.44078
406,61.44078
407,60.83028
408,60.83028
409,60.195362
410,60.195362
411,60.195362
412,59.58486
413,59.58486
414,58.99878
415,58.99878
416,58.46154
417,58.46154
418,58.46154
419,57.99756
420,57.99756
421,57.58242
422,57.58242
423,57.58242
424,57.11844
425,57.11844
426,56.63004
427,56.63004
428,56.166058
429,56.166058
430,56.166058
431,55.677658
432,55.677658
433,
434,
435,
436,55.140415
437,55.140415
438,54.529915
439,54.529915
440,53.821735
441,53.821735
442,53.821735
443,53.015873
444,53.015873
445,52.136753
446,52.136753
447,52.136753
448,51.135532
449,51.135532
450,50.01221
451,50.01221
452,48.79121
453,48.79121
454,48.79121
455,47.52137
456,47.52137
457,46.300365
458,46.300365
459,46.300365
460,45.103786
461,45.103786
462,43.980465
463,43.980465
464,42.954823
465,42.954823
466,42.954823
467,41.978024
468,41.978024
469,41.098904
470,41.098904
471,41.098904
472,40.366302
473,40.366302
474,39.78022
475,39.78022
476,39.31624
477,39.31624
478,39.31624
479,38.9011
480,38.9011
481,38.534798
482,38.534798
483,38.534798
484,38.19292
485,38.19292
486,37.875458
487,37.875458
488,37.60684
489,37.60684
490,37.60684
491,37.362637
492,37.362637
493,37.11844
494,37.11844
495,37.11844
496,36.800976
497,36.800976
498,36.4591
499,36.4591
500,36.092796
501,36.092796
502,36.092796
503,35.702076
504,35.702076
505,35.286938
506,35.286938
507,35.286938
508,34.871796
509,34.871796
510,34.432236
511,34.432236
512,33.968254
513,33.968254
514,33.968254
515,33.528694
516,33.528694
517,33.113552
518,33.113552
519,33.113552
520,32.673992
521,32.673992
522,32.210014
523,32.210014
524,31.819292
525,31.819292
526,31.819292
527,31.452991
528,31.452991
529,31.013432
530,31.013432
531,31.013432
532,30.573872
533,30.573872
534,30.183151
535,30.183151
536,29.79243
537,29.79243
538,29.79243
539,29.42613
540,29.42613
541,29.08425
542,29.08425
543,29.08425
544,28.717949
545,28.717949
546,28.376068
547,28.376068
548,28.058609
549,28.058609
550,28.058609
551,33.431015
552,33.431015
553,41.73382
554,41.73382
555,41.73382
556,45.885227
557,45.885227
558,47.96093
559,47.96093
560,48.98657
561,48.98657
562,48.98657
563,49.49939
564,49.49939
565,49.76801
566,49.76801
567,49.76801
568,49.89011
569,49.89011
570,49.96337
571,49.96337
572,49.98779
573,49.98779
574,49.98779
575,50.01221
576,50.01221
577,50.01221
578,50.01221
579,50.01221
580,50.01221
581,50.01221
582,50.01221
583,50.01221
584,50.01221
585,50.01221
586,50.01221
587,50.01221
588,50.01221
589,50.01221
590,50.01221
591,50.01221
592,50.01221
593,50.01221
594,50.01221
595,50.01221
596,50.01221
597,50.01221
598,50.01221
599,50.01221
600,50.01221
601,50.01221
602,50.01221
603,50.01221
604,50.01221
605,50.01221
606,50.01221
607,50.01221
608,50.01221
609,50.01221
610,50.01221
611,50.01221
612,50.01221
613,50.01221
614,50.01221
615,50.01221
616,50.01221
617,50.01221
618,50.01221
619,50.01221
620,50.01221
621,50.01221
622,50.01221
623,50.01221
624,50.01221
625,50.01221
626,50.01221
627,50.01221
628,50.01221
629,50.01221
630,50.01221
631,50.01221
632,50.01221
633,50.01221
634,50.01221
635,50.01221
636,50.01221
637,48.18071
638,48.18071
639,48.18071
640,45.421246
641,45.421246
642,44.004887
643,44.004887
644,43.296703
645,43.296703
646,43.296703
647,42.954823
648,42.954823
649,42.783882
650,42.783882
651,42.783882
652,42.661785
653,42.661785
654,42.564102
655,42.564102
656,42.490845
657,42.490845
658,42.490845
659,42.417583
660,42.417583
661,42.344322
662,42.344322
663,42.344322
664,42.22222
665,42.22222
666,42.026863
667,42.026863
668,41.758244
669,41.758244
670,41.758244
671,41.44078
672,41.44078
673,41.05006
674,41.05006
675,41.05006
676,40.4884
677,40.4884
678,39.78022
679,39.78022
680,38.94994
681,38.94994
682,38.94994
683,37.94872
684,37.94872
685,36.72772
686,36.72772
687,36.72772
688,35.335777
689,35.335777
690,33.870575
691,33.870575
692,32.28327
693,32.28327
694,32.28327
695,30.598291
696,30.598291
697,28.88889
698,28.88889
699,28.88889
700,27.155067
701,27.155067
702,25.445665
703,25.445665
704,23.858364
705,23.858364
706,23.858364
707,22.417583
708,22.417583
709,21.147741
710,21.147741
711,21.147741
712,20.17094
713,20.17094
714,19.60928
715,19.60928
716,19.41392
717,19.41392
718,19.41392
719,19.5116
720,19.5116
721,19.97558
722,19.97558
723,19.97558
724,20.78144
725,20.78144
726,21.831503
727,21.831503
728,22.979244
729,22.979244
730,22.979244
731,24.249084
732,24.249084
733,25.518927
734,25.518927
735,25.518927
736,26.739927
737,26.739927
738,27.838829
739,27.838829
740,28.766788
741,28.766788
742,28.766788
743,29.52381
744,29.52381
745,30.10989
746,30.10989
747,30.10989
748,30.549452
749,30.549452
750,30.818071
751,30.818071
752,30.86691
753,30.86691
754,30.86691
755,30.793652
756,30.793652
757,30.647131
758,30.647131
759,30.647131
760,30.354092
761,30.354092
762,29.93895
763,29.93895
764,29.42613
765,29.42613
766,29.42613
767,28.86447
768,28.86447
769,28.22955
770,28.22955
771,28.22955
772,27.521368
773,27.521368
774,26.764347
775,26.764347
776,25.982906
777,25.982906
778,25.982906
779,25.201466
780,25.201466
781,24.395605
782,24.395605
783,24.395605
784,23.589745
785,23.589745
786,22.783884
787,22.783884
788,22.002443
789,22.002443
790,22.002443
791,21.294262
792,21.294262
793,20.683762
794,20.683762
795,20.683762
796,20.17094
797,20.17094
798,19.78022
799,19.78022
800,19.56044
801,19.56044
802,19.56044
803,19.462759
804,19.462759
805,19.43834
806,19.43834
807,19.43834
808,19.48718
809,19.48718
810,19.60928
811,19.60928
812,19.7558
813,19.7558
814,19.7558
815,19.82906
816,19.82906
817,19.78022
818,19.78022
819,19.78022
820,19.68254
821,19.68254
822,19.58486
823,19.58486
824,19.56044
825,19.56044
826,19.56044
827,19.78022
828,19.78022
829,20.56166
830,20.56166
831,20.56166
832,21.978022
833,21.978022
834,24.078144
835,24.078144
836,27.081808
837,27.081808
838,27.081808
839,30.964592
840,30.964592
841,35.457874
842,35.457874
843,35.457874
844,40.2442
845,40.2442
846,45.030525
847,45.030525
848,49.35287
849,49.35287
850,49.35287
851,53.137974
852,53.137974
853,56.263737
854,56.263737
855,56.263737
856,58.48596
857,58.48596
858,59.82906
859,59.82906
860,60.46398
861,60.46398
862,60.46398
863,60.586082
864,60.586082
865,60.2442
866,60.2442
867,60.2442
868,59.56044
869,59.56044
870,58.705738
871,58.705738
872,57.77778
873,57.77778
874,57.77778
875,56.84982
876,56.84982
877,55.946278
878,55.946278
879,55.946278
880,55.115997
881,55.115997
882,54.407814
883,54.407814
884,53.797314
885,53.797314
886,53.797314
887,53.284492
888,53.284492
889,52.844933
890,52.844933
891,52.844933
892,52.478634
893,52.478634
894,
895,
896,52.136753
897,52.136753
898,52.136753
899,51.746033
900,51.746033
901,51.33089
902,51.33089
903,51.33089
904,50.89133
905,50.89133
906,50.40293
907,50.40293
908,49.81685
909,49.81685
910,49.81685
911,49.13309
912,49.13309
913,48.37607
914,48.37607
915,48.37607
916,47.52137
917,47.52137
918,46.495728
919,46.495728
920,45.372406
921,45.372406
922,45.372406
923,44.200245
924,44.200245
925,42.979244
926,42.979244
927,42.979244
928,41.709404
929,41.709404
930,40.415142
931,40.415142
932,39.19414
933,39.19414
934,39.19414
935,38.07082
936,38.07082
937,37.0696
938,37.0696
939,37.0696
940,36.214897
941,36.214897
942,35.531136
943,35.531136
944,34.969475
945,34.969475
946,34.969475
947,34.505497
948,34.505497
949,34.163616
950,34.163616
951,34.163616
952,33.894993
953,33.894993
954,33.675213
955,33.675213
956,33.504272
957,33.504272
958,33.504272
959,33.357754
960,33.357754
961,33.260075
962,33.260075
963,33.260075
964,33.137974
965,33.137974
966,32.967033
967,32.967033
968,32.72283
969,32.72283
970,32.72283
971,32.429794
972,32.429794
973,32.06349
974,32.06349
975,32.06349
976,31.648352
977,31.648352
978,31.184372
979,31.184372
980,30.744812
981,30.744812
982,30.744812
983,30.32967
984,30.32967
985,29.93895
986,29.93895
987,29.93895
988,29.62149
989,29.62149
990,29.352869
991,29.352869
992,29.10867
993,29.10867
994,29.10867
995,28.937729
996,28.937729
997,28.81563
998,28.81563
999,28.81563
1000,28.69353
1001,28.69353
1002,28.59585
1003,28.59585
1004,28.47375
1005,28.47375
1006,28.47375
1007,28.327229
1008,28.327229
1009,28.180708
1010,28.180708
1011,28.180708
1012,27.985348
1013,27.985348
1014,27.716728
1015,27.716728
1016,27.423687
1017,27.423687
1018,27.423687
1019,27.106228
1020,27.106228
1021,26.739927
1022,26.739927
1023,26.739927
1024,26.398046
1025,26.398046
1026,26.080587
1027,26.080587
1028,25.811966
1029,25.811966
1030,25.811966
1031,25.665445
1032,25.665445
1033,25.616606
1034,25.616606
1035,25.616606
1036,25.689867
1037,25.689867
1038,25.860806
1039,25.860806
1040,26.105007
1041,26.105007
1042,26.105007
1043,26.373627
1044,26.373627
1045,26.617826
1046,26.617826
1047,26.617826
1048,26.862028
1049,26.862028
1050,26.837606
1051,26.837606
1052,26.764347
1053,26.764347
1054,26.764347
1055,26.715508
1056,26.715508
1057,26.886448
1058,26.886448
1059,26.886448
1060,27.619047
1061,27.619047
1062,28.937729
1063,28.937729
1064,30.91575
1065,30.91575
1066,30.91575
1067,33.772896
1068,33.772896
1069,37.435898
1070,37.435898
1071,37.435898
1072,41.636143
1073,41.636143
1074,46.056168
1075,46.056168
1076,50.427353
1077,50.427353
1078,50.427353
1079,54.358974
1080,54.358974
1081,57.704517
1082,57.704517
1083,57.704517
1084,60.39072
1085,60.39072
1086,62.124542
1087,62.124542
1088,62.832726
1089,62.832726
1090,62.832726
1091,62.759464
1092,62.759464
1093,62.075703
1094,62.075703
1095,62.075703
1096,60.879124
1097,60.879124
1098,59.41392
1099,59.41392
1100,57.85104
1101,57.85104
1102,57.85104
1103,56.336998
1104,56.336998
1105,55.018314
1106,55.018314
1107,55.018314
1108,54.017094
1109,54.017094
1110,53.308914
1111,53.308914
1112,52.869354
1113,52.869354
1114,52.869354
1115,52.673992
1116,52.673992
1117,52.673992
1118,52.673992
1119,52.673992
1120,52.771675
1121,52.771675
1122,52.893772
1123,52.893772
1124,52.967033
1125,52.967033
1126,52.967033
1127,52.918194
1128,52.918194
1129,52.698414
1130,52.698414
1131,52.698414
1132,52.28327
1133,52.28327
1134,51.67277
1135,51.67277
1136,50.76923
1137,50.76923
1138,50.76923
1139,49.645912
1140,49.645912
1141,48.32723
1142,48.32723
1143,48.32723
1144,46.764347
1145,46.764347
1146,45.006107
1147,45.006107
1148,43.125763
1149,43.125763
1150,43.125763
1151,41.17216
1152,41.17216
1153,39.21856
1154,39.21856
1155,39.21856
1156,37.38706
1157,37.38706
1158,35.726498
1159,35.726498
1160,34.261295
1161,34.261295
1162,34.261295
1163,33.040295
1164,33.040295
1165,32.11233
1166,32.11233
1167,32.11233
1168,31.428572
1169,31.428572
1170,30.940172
1171,30.940172
1172,30.67155
1173,30.67155
1174,30.67155
1175,30.573872
1176,30.573872
1177,30.647131
1178,30.647131
1179,30.647131
1180,30.842491
1181,30.842491
1182,31.11111
1183,31.11111
1184,31.428572
1185,31.428572
1186,31.428572
1187,31.794872
1188,31.794872
1189,32.185593
1190,32.185593
1191,32.185593
1192,32.576313
1193,32.576313
1194,32.893772
1195,32.893772
1196,33.186813
1197,33.186813
1198,33.186813
1199,33.431015
1200,33.431015
1201,33.553116
1202,33.553116
1203,33.553116
1204,33.528694
1205,33.528694
1206,33.406593
1207,33.406593
1208,33.137974
1209,33.137974
1210,33.137974
1211,32.771675
1212,32.771675
1213,32.307693
1214,32.307693
1215,32.307693
1216,31.794872
1217,31.794872
1218,31.208792
1219,31.208792
1220,30.573872
1221,30.573872
1222,30.573872
1223,29.93895
1224,29.93895
1225,29.32845
1226,29.32845
1227,29.32845
1228,28.766788
1229,28.766788
1230,28.22955
1231,28.22955
1232,27.741148
1233,27.741148
1234,27.741148
1235,27.301588
1236,27.301588
1237,26.935287
1238,26.935287
1239,26.935287
1240,26.617826
1241,26.617826
1242,26.275948
1243,26.275948
1244,25.958487
1245,25.958487
1246,25.958487
1247,25.665445
1248,25.665445
1249,25.372406
1250,25.372406
1251,25.372406
1252,25.103786
1253,25.103786
1254,24.884005
1255,24.884005
1256,24.761906
1257,24.761906
1258,24.761906
1259,24.688644
1260,24.688644
1261,24.639805
1262,24.639805
1263,24.639805
1264,24.615385
1265,24.615385
1266,24.590965
1267,24.590965
1268,24.542126
1269,24.542126
1270,24.542126
1271,24.444445
1272,24.444445
1273,24.322344
1274,24.322344
1275,24.322344
1276,24.126984
1277,24.126984
1278,
1279,
1280,23.809525
1281,23.809525
1282,23.809525
1283,23.369965
1284,23.369965
1285,22.832724
1286,22.832724
1287,22.832724
1288,22.197803
1289,22.197803
1290,21.489622
1291,21.489622
1292,20.83028
1293,20.83028
1294,20.83028
1295,20.317461
1296,20.317461
1297,20.097681
1298,20.097681
1299,20.097681
1300,20.488401
1301,20.488401
1302,21.855923
1303,21.855923
1304,24.151405
1305,24.151405
1306,24.151405
1307,27.326008
1308,27.326008
1309,31.550673
1310,31.550673
1311,31.550673
1312,36.581196
1313,36.581196
1314,42.100124
1315,42.100124
1316,47.69231
1317,47.69231
1318,47.69231
1319,52.967033
1320,52.967033
1321,57.435898
1322,57.435898
1323,57.435898
1324,61.074482
1325,61.074482
1326,63.956043
1327,63.956043
1328,65.86081
1329,65.86081
1330,65.86081
1331,66.86203
1332,66.86203
1333,67.17949
1334,67.17949
1335,67.17949
1336,67.08181
1337,67.08181
1338,66.61783
1339,66.61783
1340,65.88522
1341,65.88522
1342,65.88522
1343,65.030525
1344,65.030525
1345,64.151405
1346,64.151405
1347,64.151405
1348,63.296703
1349,63.296703
1350,62.466423
1351,62.466423
1352,61.684982
1353,61.684982
1354,61.684982
1355,60.976803
1356,60.976803
1357,60.34188
1358,60.34188
1359,60.34188
1360,59.706963
1361,59.706963
1362,59.09646
1363,59.09646
1364,58.51038
1365,58.51038
1366,58.51038
1367,57.924297
1368,57.924297
1369,57.38706
1370,57.38706
1371,57.38706
1372,56.89866
1373,56.89866
1374,56.41026
1375,56.41026
1376,55.921856
1377,55.921856
1378,55.921856
1379,55.360195
1380,55.360195
1381,54.725277
1382,54.725277
1383,54.725277
1384,54.017094
1385,54.017094
1386,53.137974
1387,53.137974
1388,52.06349
1389,52.06349
1390,52.06349
1391,50.866913
1392,50.866913
1393,49.57265
1394,49.57265
1395,49.57265
1396,48.15629
1397,48.15629
1398,46.764347
1399,46.764347
1400,45.470085
1401,45.470085
1402,45.470085
1403,44.273506
1404,44.273506
1405,43.247864
1406,43.247864
1407,43.247864
1408,42.368744
1409,42.368744
1410,41.636143
1411,41.636143
1412,41.025642
1413,41.025642
1414,41.025642
1415,40.4884
1416,40.4884
1417,40.0
1418,40.0
1419,40.0
1420,39.5116
1421,39.5116
1422,39.0232
1423,39.0232
1424,38.55922
1425,38.55922
1426,38.55922
1427,38.144077
1428,38.144077
1429,37.753357
1430,37.753357
1431,37.753357
1432,37.411476
1433,37.411476
1434,37.094017
1435,37.094017
1436,36.825397
1437,36.825397
1438,36.825397
1439,36.581196
1440,36.581196
1441,36.385838
1442,36.385838
1443,36.385838
1444,36.263737
1445,36.263737
1446,36.166058
1447,36.166058
1448,36.06838
1449,36.06838
1450,36.06838
1451,35.995117
1452,35.995117
1453,35.873016
1454,35.873016
1455,35.873016
1456,35.702076
1457,35.702076
1458,35.482296
1459,35.482296
1460,35.262516
1461,35.262516
1462,35.262516
1463,34.969475
1464,34.969475
1465,34.578754
1466,34.578754
1467,34.578754
1468,34.114773
1469,34.114773
1470,33.626373
1471,33.626373
1472,33.089134
1473,33.089134
1474,33.089134
1475,32.527473
1476,32.527473
1477,31.941393
1478,31.941393
1479,31.941393
1480,31.379732
1481,31.379732
1482,30.86691
1483,30.86691
1484,30.378511
1485,30.378511
1486,30.378511
1487,29.963371
1488,29.963371
1489,29.62149
1490,29.62149
1491,29.62149
1492,29.30403
1493,29.30403
1494,29.03541
1495,29.03541
1496,28.84005
1497,28.84005
1498,28.84005
1499,28.64469
1500,28.64469
1501,28.47375
1502,28.47375
1503,28.47375
1504,28.278389
1505,28.278389
1506,28.058609
1507,28.058609
1508,27.521368
1509,27.521368
1510,27.521368
1511,27.106228
1512,27.106228
1513,26.617826
1514,26.617826
1515,26.617826
1516,26.056166
1517,26.056166
1518,25.396826
1519,25.396826
1520,24.664225
1521,24.664225
1522,24.664225
1523,23.931623
1524,23.931623
1525,23.321123
1526,23.321123
1527,23.321123
1528,23.076923
1529,23.076923
1530,23.589745
1531,23.589745
1532,24.859585
1533,24.859585
1534,24.859585
1535,27.008547
1536,27.008547
1537,30.354092
1538,30.354092
1539,30.354092
1540,34.822956
1541,34.822956
1542,40.07326
1543,40.07326
1544,45.738705
1545,45.738705
1546,45.738705
1547,51.45299
1548,51.45299
1549,56.67888
1550,56.67888
1551,56.67888
1552,61.269844
1553,61.269844
1554,65.128204
1555,65.128204
1556,67.96093
1557,67.96093
1558,67.96093
1559,69.74359
1560,69.74359
1561,70.69597
1562,70.69597
1563,70.69597
1564,71.013435
1565,71.013435
1566,70.72039
1567,70.72039
1568,70.03663
1569,70.03663
1570,70.03663
1571,69.10867
1572,69.10867
1573,68.10745
1574,68.10745
1575,68.10745
1576,67.15507
1577,67.15507
1578,66.30037
1579,66.30037
1580,65.61661
1581,65.61661
1582,65.61661
1583,65.05495
1584,65.05495
1585,64.590965
1586,64.590965
1587,64.590965
1588,64.151405
1589,64.151405
1590,63.687424
1591,63.687424
1592,63.125763
1593,63.125763
1594,63.125763
1595,62.344322
1596,62.344322
1597,61.245422
1598,61.245422
1599,61.245422
1600,59.8779
1601,59.8779
1602,58.36386
1603,58.36386
1604,56.72772
1605,56.72772
1606,56.72772
1607,55.067158
1608,55.067158
1609,53.431015
1610,53.431015
1611,53.431015
1612,51.89255
1613,51.89255
1614,50.54945
1615,50.54945
1616,49.40171
1617,49.40171
1618,49.40171
1619,48.44933
1620,48.44933
1621,47.643467
1622,47.643467
1623,47.643467
1624,47.032967
1625,47.032967
1626,46.520145
1627,46.520145
1628,46.105007
1629,46.105007
1630,46.105007
1631,45.714287
1632,45.714287
1633,45.299145
1634,45.299145
1635,45.299145
1636,44.859585
1637,44.859585
1638,44.371185
1639,44.371185
1640,43.809525
1641,43.809525
1642,43.809525
1643,43.199024
1644,43.199024
1645,42.61294
1646,42.61294
1647,42.61294
1648,42.026863
1649,42.026863
1650,41.489624
1651,41.489624
1652,41.05006
1653,41.05006
1654,41.05006
1655,40.708183
1656,40.708183
1657,40.4884
1658,40.4884
1659,40.4884
1660,40.366302
1661,40.366302
1662,40.31746
1663,40.31746
1664,40.31746
1665,40.31746
1666,40.31746
1667,40.366302
1668,40.366302
1669,40.415142
1670,40.415142
1671,40.415142
1672,40.43956
1673,40.43956
1674,40.415142
1675,40.415142
1676,40.39072
1677,40.39072
1678,40.39072
1679,40.34188
1680,40.34188
1681,40.2442
1682,40.2442
1683,40.2442
1684,40.04884
1685,40.04884
1686,39.78022
1687,39.78022
1688,39.46276
1689,39.46276
1690,39.46276
1691,39.0232
1692,39.0232
1693,38.43712
1694,38.43712
1695,38.43712
1696,37.72894
1697,37.72894
1698,36.971916
1699,36.971916
1700,36.117218
1701,36.117218
1702,36.117218
1703,35.238094
1704,35.238094
1705,34.358974
1706,34.358974
1707,34.358974
1708,33.528694
1709,33.528694
1710,32.771675
1711,32.771675
1712,32.11233
1713,32.11233
1714,32.11233
1715,31.623932
1716,31.623932
1717,31.257631
1718,31.257631
1719,31.257631
1720,31.013432
1721,31.013432
1722,30.89133
1723,30.89133
1724,30.818071
1725,30.818071
1726,30.818071
1727,30.744812
1728,30.744812
1729,30.72039
1730,30.72039
1731,30.72039
1732,30.598291
1733,30.598291
1734,30.378511
1735,30.378511
1736,30.06105
1737,30.06105
1738,30.06105
1739,
1740,
1741,29.59707
1742,29.59707
1743,29.59707
1744,28.98657
1745,28.98657
1746,28.376068
1747,28.376068
1748,27.887669
1749,27.887669
1750,27.887669
1751,27.765568
1752,27.765568
1753,28.44933
1754,28.44933
1755,28.44933
1756,29.93895
1757,29.93895
1758,32.258854
1759,32.258854
1760,35.799755
1761,35.799755
1762,35.799755
1763,40.43956
1764,40.43956
1765,45.811966
1766,45.811966
1767,45.811966
1768,51.575092
1769,51.575092
1770,57.362637
1771,57.362637
1772,62.588524
1773,62.588524
1774,62.588524
1775,67.130646
1776,67.130646
1777,70.86691
1778,70.86691
1779,70.86691
1780,73.431015
1781,73.431015
1782,74.82295
1783,74.82295
1784,75.33578
1785,75.33578
1786,75.33578
1787,75.26252
1788,75.26252
1789,74.60317
1790,74.60317
1791,74.60317
1792,73.650795
1793,73.650795
1794,72.57632
1795,72.57632
1796,71.47741
1797,71.47741
1798,71.47741
1799,70.50061
1800,70.50061
1801,69.71917
1802,69.71917
1803,69.71917
1804,69.08425
1805,69.08425
1806,68.59585
1807,68.59585
1808,68.229546
1809,68.229546
1810,68.229546
1811,67.91209
1812,67.91209
1813,67.66789
1814,67.66789
1815,67.66789
1816,67.448105
1817,67.448105
1818,66.98413
1819,66.98413
1820,66.568985
1821,66.568985
1822,66.568985
1823,66.007324
1824,66.007324
1825,64.44444
1826,64.44444
1827,64.44444
1828,63.394386
1829,63.394386
1830,62.197803
1831,62.197803
1832,59.3895
1833,59.3895
1834,59.3895
1835,57.89988
1836,57.89988
1837,56.361416
1838,56.361416
1839,56.361416
1840,54.114777
1841,54.114777
1842,52.72283
1843,52.72283
1844,51.45299
1845,51.45299
1846,51.45299
1847,50.305252
1848,50.305252
1849,48.88889
1850,48.88889
1851,48.88889
1852,48.15629
1853,48.15629
1854,47.545788
1855,47.545788
1856,46.862026
1857,46.862026
1858,46.862026
1859,46.544567
1860,46.544567
1861,46.275948
1862,46.275948
1863,46.275948
1864,46.056168
1865,46.056168
1866,45.860806
1867,45.860806
1868,45.689865
1869,45.689865
1870,45.689865
1871,45.518925
1872,45.518925
1873,45.274727
1874,45.274727
1875,45.274727
1876,44.957264
1877,44.957264
1878,44.615387
1879,44.615387
1880,44.224667
1881,44.224667
1882,44.224667
1883,43.785103
1884,43.785103
1885,43.296703
1886,43.296703
1887,43.296703
1888,42.735043
1889,42.735043
1890,42.124542
1891,42.124542
1892,40.757023
1893,40.757023
1894,40.757023
1895,39.975582
1896,39.975582
1897,39.19414
1898,39.19414
1899,39.19414
1900,38.43712
1901,38.43712
1902,37.72894
1903,37.72894
1904,37.094017
1905,37.094017
1906,37.094017
1907,36.532356
1908,36.532356
1909,36.043957
1910,36.043957
1911,36.043957
1912,35.653236
1913,35.653236
1914,35.360195
1915,35.360195
1916,35.091576
1917,35.091576
1918,35.091576
1919,34.847374
1920,34.847374
1921,34.627594
1922,34.627594
1923,34.627594
1924,34.407814
1925,34.407814
1926,34.212456
1927,34.212456
1928,34.041515
1929,34.041515
1930,34.041515
1931,33.870575
1932,33.870575
1933,33.724052
1934,33.724052
1935,33.724052
1936,33.601955
1937,33.601955
1938,33.479855
1939,33.479855
1940,33.357754
1941,33.357754
1942,33.357754
1943,33.113552
1944,33.113552
1945,32.796093
1946,32.796093
1947,32.796093
1948,32.478634
1949,32.478634
1950,32.185593
1951,32.185593
1952,32.185593
1953,32.185593
1954,32.185593
1955,32.55189
1956,32.55189
1957,33.479855
1958,33.479855
1959,33.479855
1960,35.262516
1961,35.262516
1962,38.07082
1963,38.07082
1964,41.758244
1965,41.758244
1966,41.758244
1967,46.031746
1968,46.031746
1969,50.818073
1970,50.818073
1971,50.818073
1972,55.677658
1973,55.677658
1974,60.366302
1975,60.366302
1976,64.63981
1977,64.63981
1978,64.63981
1979,68.13187
1980,68.13187
1981,70.62271
1982,70.62271
1983,70.62271
1984,72.30769
1985,72.30769
1986,73.333336
1987,73.333336
1988,73.60195
1989,73.60195
1990,73.60195
1991,73.211235
1992,73.211235
1993,72.40537
1994,72.40537
1995,72.40537
1996,71.37973
1997,71.37973
1998,70.15873
1999,70.15873
2000,68.86447
2001,68.86447
2002,68.86447
2003,67.59463
2004,67.59463
2005,66.42247
2006,66.42247
2007,66.42247
2008,65.39683
2009,65.39683
2010,64.56654
2011,64.56654
2012,63.907204
2013,63.907204
2014,63.907204
2015,63.369965
2016,63.369965
2017,62.954823
2018,62.954823
2019,62.954823
2020,62.612946
2021,62.612946
2022,62.295483
2023,62.295483
2024,61.978024
2025,61.978024
2026,61.978024
2027,61.61172
2028,61.61172
2029,61.196583
2030,61.196583
2031,61.196583
2032,60.68376
2033,60.68376
2034,60.07326
2035,60.07326
2036,59.31624
2037,59.31624
2038,59.31624
2039,58.46154
2040,58.46154
2041,57.484737
2042,57.484737
2043,57.484737
2044,56.4591
2045,56.4591
2046,55.384617
2047,55.384617
2048,54.310135
2049,54.310135
2050,54.310135
2051,53.284492
2052,53.284492
2053,52.307693
2054,52.307693
2055,52.307693
2056,51.428574
2057,51.428574
2058,50.67155
2059,50.67155
2060,50.036633
2061,50.036633
2062,50.036633
2063,49.49939
2064,49.49939
2065,49.05983
2066,49.05983
2067,49.05983
2068,48.71795
2069,48.71795
2070,48.44933
2071,48.44933
2072,48.205128
2073,48.205128
2074,48.205128
2075,47.985348
2076,47.985348
2077,47.765568
2078,47.765568
2079,47.765568
2080,47.49695
2081,47.49695
2082,47.22833
2083,47.22833
2084,46.862026
2085,46.862026
2086,46.862026
2087,46.324787
2088,46.324787
2089,45.689865
2090,45.689865
2091,45.689865
2092,44.981686
2093,44.981686
2094,44.102566
2095,44.102566
2096,43.125763
2097,43.125763
2098,43.125763
2099,42.124542
2100,42.124542
2101,41.17216
2102,41.17216
2103,41.17216
2104,40.29304
2105,40.29304
2106,39.5116
2107,39.5116
2108,38.82784
2109,38.82784
2110,38.82784
2111,38.24176
2112,38.24176
2113,37.72894
2114,37.72894
2115,37.72894
2116,37.28938
2117,37.28938
2118,36.84982
2119,36.84982
2120,36.385838
2121,36.385838
2122,36.385838
2123,35.873016
2124,35.873016
2125,35.335777
2126,35.335777
2127,35.335777
2128,34.798534
2129,34.798534
2130,34.261295
2131,34.261295
2132,33.748474
2133,33.748474
2134,33.748474
2135,33.260075
2136,33.260075
2137,32.796093
2138,32.796093
2139,32.796093
2140,32.380955
2141,32.380955
2142,31.990232
2143,31.990232
2144,31.672771
2145,31.672771
2146,31.672771
2147,31.404152
2148,31.404152
2149,31.159952
2150,31.159952
2151,31.159952
2152,30.940172
2153,30.940172
2154,30.69597
2155,30.69597
2156,30.427351
2157,30.427351
2158,30.427351
2159,30.10989
2160,30.10989
2161,29.69475
2162,29.69475
2163,29.69475
2164,29.08425
2165,29.08425
2166,28.351648
2167,28.351648
2168,27.472528
2169,27.472528
2170,27.472528
2171,26.422466
2172,26.422466
2173,25.372406
2174,25.372406
2175,25.372406
2176,24.468864
2177,24.468864
2178,23.858364
2179,23.858364
2180,23.931623
2181,23.931623
2182,23.931623
2183,25.030525
2184,25.030525
2185,27.081808
2186,27.081808
2187,27.081808
2188,30.06105
2189,30.06105
2190,34.139194
2191,34.139194
2192,38.99878
2193,38.99878
2194,38.99878
2195,44.297924
2196,44.297924
2197,49.62149
2198,49.62149
2199,49.62149
2200,
2201,
2202,54.676437
2203,54.676437
2204,59.04762
2205,59.04762
2206,59.04762
2207,62.661785
2208,62.661785
2209,65.592186
2210,65.592186
2211,65.592186
2212,67.66789
2213,67.66789
2214,68.91331
2215,68.91331
2216,69.52381
2217,69.52381
2218,69.52381
2219,69.670334
2220,69.670334
2221,69.35287
2222,69.35287
2223,69.35287
2224,68.71795
2225,68.71795
2226,67.88767
2227,67.88767
2228,66.95971
2229,66.95971
2230,66.95971
2231,66.031746
2232,66.031746
2233,65.17705
2234,65.17705
2235,65.17705
2236,64.42003
2237,64.42003
2238,63.736263
2239,63.736263
2240,63.199024
2241,63.199024
2242,63.199024
2243,62.808304
2244,62.808304
2245,62.539684
2246,62.539684
2247,62.539684
2248,62.39316
2249,62.39316
2250,62.319904
2251,62.319904
2252,62.246643
2253,62.246643
2254,62.246643
2255,62.17338
2256,62.17338
2257,62.00244
2258,62.00244
2259,62.00244
2260,61.709404
2261,61.709404
2262,61.196583
2263,61.196583
2264,60.46398
2265,60.46398
2266,60.46398
2267,59.56044
2268,59.56044
2269,58.46154
2270,58.46154
2271,58.46154
2272,57.16728
2273,57.16728
2274,55.775337
2275,55.775337
2276,54.334557
2277,54.334557
2278,54.334557
2279,52.942616
2280,52.942616
2281,51.648354
2282,51.648354
2283,51.648354
2284,50.476192
2285,50.476192
2286,49.45055
2287,49.45055
2288,48.644688
2289,48.644688
2290,48.644688
2291,48.034187
2292,48.034187
2293,47.643467
2294,47.643467
2295,47.643467
2296,47.35043
2297,47.35043
2298,47.106228
2299,47.106228
2300,46.886448
2301,46.886448
2302,46.886448
2303,46.642246
2304,46.642246
2305,46.39805
2306,46.39805
2307,46.39805
2308,46.129425
2309,46.129425
2310,45.860806
2311,45.860806
2312,45.592186
2313,45.592186
2314,45.592186
2315,45.347984
2316,45.347984
2317,45.079365
2318,45.079365
2319,45.079365
2320,44.786327
2321,44.786327
2322,44.493286
2323,44.493286
2324,44.175823
2325,44.175823
2326,44.175823
2327,43.858364
2328,43.858364
2329,43.492065
2330,43.492065
2331,43.492065
2332,43.101345
2333,43.101345
2334,42.686203
2335,42.686203
2336,42.22222
2337,42.22222
2338,42.22222
2339,41.684982
2340,41.684982
2341,41.05006
2342,41.05006
2343,41.05006
2344,40.39072
2345,40.39072
2346,39.68254
2347,39.68254
2348,38.94994
2349,38.94994
2350,38.94994
2351,38.19292
2352,38.19292
2353,36.800976
2354,36.800976
2355,36.800976
2356,36.214897
2357,36.214897
2358,35.702076
2359,35.702076
2360,35.262516
2361,35.262516
2362,35.262516
2363,34.896217
2364,34.896217
2365,34.554337
2366,34.554337
2367,34.554337
2368,34.212456
2369,34.212456
2370,33.846153
2371,33.846153
2372,33.431015
2373,33.431015
2374,33.431015
2375,33.015873
2376,33.015873
2377,32.576313
2378,32.576313
2379,32.576313
2380,32.16117
2381,32.16117
2382,31.746033
2383,31.746033
2384,31.330893
2385,31.330893
2386,31.330893
2387,31.013432
2388,31.013432
2389,30.72039
2390,30.72039
2391,30.72039
2392,30.45177
2393,30.45177
2394,30.207571
2395,30.207571
2396,29.93895
2397,29.93895
2398,29.93895
2399,29.64591
2400,29.64591
2401,29.32845
2402,29.32845
2403,29.32845
2404,28.98657
2405,28.98657
2406,28.62027
2407,28.62027
2408,28.20513
2409,28.20513
2410,28.20513
2411,27.765568
2412,27.765568
2413,27.252748
2414,27.252748
2415,27.252748
2416,26.642246
2417,26.642246
2418,25.982906
2419,25.982906
2420,25.274725
2421,25.274725
2422,25.274725
2423,24.737486
2424,24.737486
2425,24.420025
2426,24.420025
2427,24.420025
2428,24.517704
2429,24.517704
2430,25.470085
2431,25.470085
2432,27.619047
2433,27.619047
2434,27.619047
2435,30.769232
2436,30.769232
2437,34.798534
2438,34.798534
2439,34.798534
2440,39.82906
2441,39.82906
2442,45.445667
2443,45.445667
2444,51.28205
2445,51.28205
2446,51.28205
2447,56.89866
2448,56.89866
2449,61.880344
2450,61.880344
2451,61.880344
2452,65.86081
2453,65.86081
2454,68.93773
2455,68.93773
2456,71.15995
2457,71.15995
2458,71.15995
2459,72.38095
2460,72.38095
2461,72.7961
2462,72.7961
2463,72.7961
2464,72.649574
2465,72.649574
2466,72.13676
2467,72.13676
2468,71.37973
2469,71.37973
2470,71.37973
2471,70.52503
2472,70.52503
2473,69.59707
2474,69.59707
2475,69.59707
2476,68.69353
2477,68.69353
2478,67.91209
2479,67.91209
2480,67.27717
2481,67.27717
2482,67.27717
2483,66.76435
2484,66.76435
2485,66.32479
2486,66.32479
2487,66.32479
2488,65.95849
2489,65.95849
2490,65.61661
2491,65.61661
2492,65.27473
2493,65.27473
2494,65.27473
2495,64.95727
2496,64.95727
2497,64.56654
2498,64.56654
2499,64.56654
2500,64.05373
2501,64.05373
2502,63.467644
2503,63.467644
2504,62.783882
2505,62.783882
2506,62.783882
2507,61.9536
2508,61.9536
2509,60.90354
2510,60.90354
2511,60.90354
2512,59.706963
2513,59.706963
2514,58.48596
2515,58.48596
2516,57.142857
2517,57.142857
2518,57.142857
2519,55.677658
2520,55.677658
2521,54.212456
2522,54.212456
2523,54.212456
2524,52.820515
2525,52.820515
2526,51.526253
2527,51.526253
2528,50.32967
2529,50.32967
2530,50.32967
2531,49.25519
2532,49.25519
2533,48.27839
2534,48.27839
2535,48.27839
2536,47.44811
2537,47.44811
2538,46.73993
2539,46.73993
2540,46.129425
2541,46.129425
2542,46.129425
2543,45.641026
2544,45.641026
2545,45.201466
2546,45.201466
2547,45.201466
2548,44.786327
2549,44.786327
2550,44.371185
2551,44.371185
2552,43.980465
2553,43.980465
2554,43.980465
2555,43.565323
2556,43.565323
2557,43.101345
2558,43.101345
2559,43.101345
2560,42.637363
2561,42.637363
2562,42.148964
2563,42.148964
2564,41.66056
2565,41.66056
2566,41.66056
2567,41.196583
2568,41.196583
2569,40.757023
2570,40.757023
2571,40.757023
2572,40.366302
2573,40.366302
2574,40.04884
2575,40.04884
2576,39.755802
2577,39.755802
2578,39.755802
2579,39.56044
2580,39.56044
2581,39.43834
2582,39.43834
2583,39.43834
2584,
2585,
2586,39.36508
2587,39.36508
2588,39.2674
2589,39.2674
2590,39.2674
2591,39.12088
2592,39.12088
2593,38.9011
2594,38.9011
2595,38.9011
2596,38.58364
2597,38.58364
2598,38.11966
2599,38.11966
2600,37.582417
2601,37.582417
2602,37.582417
2603,36.971916
2604,36.971916
2605,36.263737
2606,36.263737
2607,36.263737
2608,35.579975
2609,35.579975
2610,34.945057
2611,34.945057
2612,34.358974
2613,34.358974
2614,34.358974
2615,33.870575
2616,33.870575
2617,33.504272
2618,33.504272
2619,33.504272
2620,33.235653
2621,33.235653
2622,33.113552
2623,33.113552
2624,33.064713
2625,33.064713
2626,33.064713
2627,33.064713
2628,33.064713
2629,33.113552
2630,33.113552
2631,33.113552
2632,33.162395
2633,33.162395
2634,33.162395
2635,33.162395
2636,33.064713
2637,33.064713
2638,33.064713
2639,32.869354
2640,32.869354
2641,32.527473
2642,32.527473
2643,32.527473
2644,32.014652
2645,32.014652
2646,31.404152
2647,31.404152
2648,30.72039
2649,30.72039
2650,30.72039
2651,30.10989
2652,30.10989
2653,29.768011
2654,29.768011
2655,29.768011
2656,30.06105
2657,30.06105
2658,31.013432
2659,31.013432
2660,32.673992
2661,32.673992
2662,32.673992
2663,35.335777
2664,35.335777
2665,38.925518
2666,38.925518
2667,38.925518
2668,43.125763
2669,43.125763
2670,47.61905
2671,47.61905
2672,52.161175
2673,52.161175
2674,52.161175
2675,56.361416
2676,56.361416
2677,60.097683
2678,60.097683
2679,60.097683
2680,63.296703
2681,63.296703
2682,65.73871
2683,65.73871
2684,67.448105
2685,67.448105
2686,67.448105
2687,68.59585
2688,68.59585
2689,69.35287
2690,69.35287
2691,69.35287
2692,69.670334
2693,69.670334
2694,69.69475
2695,69.69475
2696,69.54823
2697,69.54823
2698,69.54823
2699,69.30403
2700,69.30403
2701,68.98657
2702,68.98657
2703,68.98657
2704,68.64469
2705,68.64469
2706,68.27839
2707,68.27839
2708,67.91209
2709,67.91209
2710,67.91209
2711,67.570206
2712,67.570206
2713,67.228325
2714,67.228325
2715,67.228325
2716,66.88645
2717,66.88645
2718,66.54457
2719,66.54457
2720,66.17827
2721,66.17827
2722,66.17827
2723,65.73871
2724,65.73871
2725,65.27473
2726,65.27473
2727,65.27473
2728,64.73749
2729,64.73749
2730,64.10256
2731,64.10256
2732,63.369965
2733,63.369965
2734,63.369965
2735,62.515263
2736,62.515263
2737,61.538464
2738,61.538464
2739,61.538464
2740,60.46398
2741,60.46398
2742,59.29182
2743,59.29182
2744,58.0464
2745,58.0464
2746,58.0464
2747,56.776558
2748,56.776558
2749,55.482296
2750,55.482296
2751,55.482296
2752,54.236874
2753,54.236874
2754,53.089134
2755,53.089134
2756,51.990234
2757,51.990234
2758,51.990234
2759,51.01343
2760,51.01343
2761,50.15873
2762,50.15873
2763,50.15873
2764,49.37729
2765,49.37729
2766,48.644688
2767,48.644688
2768,47.96093
2769,47.96093
2770,47.96093
2771,47.35043
2772,47.35043
2773,46.78877
2774,46.78877
2775,46.78877
2776,46.17827
2777,46.17827
2778,45.592186
2779,45.592186
2780,45.054947
2781,45.054947
2782,45.054947
2783,44.542126
2784,44.542126
2785,44.029305
2786,44.029305
2787,44.029305
2788,43.540905
2789,43.540905
2790,43.101345
2791,43.101345
2792,42.735043
2793,42.735043
2794,42.735043
2795,42.368744
2796,42.368744
2797,42.026863
2798,42.026863
2799,42.026863
2800,41.73382
2801,41.73382
2802,41.465202
2803,41.465202
2804,41.147743
2805,41.147743
2806,41.147743
2807,40.78144
2808,40.78144
2809,40.34188
2810,40.34188
2811,40.34188
2812,39.90232
2813,39.90232
2814,38.85226
2815,38.85226
2816,38.26618
2817,38.26618
2818,38.26618
2819,37.655678
2820,37.655678
2821,37.020756
2822,37.020756
2823,37.020756
2824,36.385838
2825,36.385838
2826,35.750916
2827,35.750916
2828,35.115997
2829,35.115997
2830,35.115997
2831,34.481075
2832,34.481075
2833,33.870575
2834,33.870575
2835,33.870575
2836,33.308914
2837,33.308914
2838,32.698414
2839,32.698414
2840,32.087914
2841,32.087914
2842,32.087914
2843,31.452991
2844,31.452991
2845,30.793652
2846,30.793652
2847,30.793652
2848,30.158731
2849,30.158731
2850,29.52381
2851,29.52381
2852,28.962149
2853,28.962149
2854,28.962149
2855,28.547009
2856,28.547009
2857,28.25397
2858,28.25397
2859,28.25397
2860,28.083029
2861,28.083029
2862,28.03419
2863,28.03419
2864,28.058609
2865,28.058609
2866,28.058609
2867,28.107449
2868,28.107449
2869,28.083029
2870,28.083029
2871,28.083029
2872,27.912088
2873,27.912088
2874,27.570208
2875,27.570208
2876,27.081808
2877,27.081808
2878,27.081808
2879,26.495728
2880,26.495728
2881,25.836386
2882,25.836386
2883,25.836386
2884,25.201466
2885,25.201466
2886,24.615385
2887,24.615385
2888,24.078144
2889,24.078144
2890,24.078144
2891,23.711843
2892,23.711843
2893,23.711843
2894,23.711843
2895,23.711843
2896,24.053724
2897,24.053724
2898,24.859585
2899,24.859585
2900,26.471308
2901,26.471308
2902,26.471308
2903,29.18193
2904,29.18193
2905,32.820515
2906,32.820515
2907,32.820515
2908,37.16728
2909,37.16728
2910,42.246643
2911,42.246643
2912,47.66789
2913,47.66789
2914,47.66789
2915,53.089134
2916,53.089134
2917,58.1685
2918,58.1685
2919,58.1685
2920,62.564102
2921,62.564102
2922,65.98291
2923,65.98291
2924,68.57143
2925,68.57143
2926,68.57143
2927,70.42735
2928,70.42735
2929,71.40415
2930,71.40415
2931,71.40415
2932,71.672775
2933,71.672775
2934,71.50183
2935,71.50183
2936,71.03785
2937,71.03785
2938,71.03785
2939,70.37851
2940,70.37851
2941,69.59707
2942,69.59707
2943,69.59707
2944,68.81563
2945,68.81563
2946,68.08303
2947,68.08303
2948,67.448105
2949,67.448105
2950,67.448105
2951,66.98413
2952,66.98413
2953,66.691086
2954,66.691086
2955,66.691086
2956,66.52015
2957,66.52015
2958,66.471306
2959,66.471306
2960,66.54457
2961,66.54457
2962,66.54457
2963,66.691086
2964,66.691086
2965,66.83761
2966,66.83761
2967,66.83761
2968,66.93529
2969,66.93529
2970,66.910866
2971,66.910866
2972,66.76435
2973,66.76435
2974,66.76435
2975,66.52015
2976,66.52015
2977,66.08059
2978,66.08059
2979,66.08059
2980,65.372406
2981,65.372406
2982,64.44444
2983,64.44444
2984,63.321125
2985,63.321125
2986,63.321125
2987,62.00244
2988,62.00244
2989,60.488403
2990,60.488403
2991,60.488403
2992,58.85226
2993,58.85226
2994,57.1917
2995,57.1917
2996,55.579975
2997,55.579975
2998,55.579975
2999,54.114777
3000,54.114777
3001,52.844933
3002,52.844933
3003,52.844933
3004,51.819294
3005,51.819294
3006,51.086693
3007,51.086693
3008,50.598293
3009,50.598293
3010,50.598293
3011,50.305252
3012,50.305252
3013,50.18315
3014,50.18315
3015,50.18315
3016,50.18315
3017,50.18315
3018,50.15873
3019,50.15873
3020,50.085472
3021,50.085472
3022,50.085472
3023,49.98779
3024,49.98779
3025,49.79243
3026,49.79243
3027,49.79243
3028,49.54823
3029,49.54823
3030,49.25519
3031,49.25519
3032,48.88889
3033,48.88889
3034,48.88889
3035,48.47375
3036,48.47375
3037,48.05861
3038,48.05861
3039,48.05861
3040,47.643467
3041,47.643467
3042,47.27717
3043,47.27717
3044,
3045,
3046,
3047,46.886448
3048,46.886448
3049,46.520145
3050,46.520145
3051,46.520145
3052,46.202686
3053,46.202686
3054,45.885227
3055,45.885227
3056,45.592186
3057,45.592186
3058,45.592186
3059,45.250305
3060,45.250305
3061,44.859585
3062,44.859585
3063,44.859585
3064,44.444447
3065,44.444447
3066,43.956043
3067,43.956043
3068,43.394382
3069,43.394382
3070,43.394382
3071,42.808304
3072,42.808304
3073,42.197803
3074,42.197803
3075,42.197803
3076,41.538464
3077,41.538464
3078,40.854702
3079,40.854702
3080,40.09768
3081,40.09768
3082,40.09768
3083,39.2674
3084,39.2674
3085,38.38828
3086,38.38828
3087,38.38828
3088,37.46032
3089,37.46032
3090,36.50794
3091,36.50794
3092,35.604397
3093,35.604397
3094,35.604397
3095,34.798534
3096,34.798534
3097,34.188034
3098,34.188034
3099,34.188034
3100,33.724052
3101,33.724052
3102,33.431015
3103,33.431015
3104,33.333332
3105,33.333332
3106,33.333332
3107,33.357754
3108,33.357754
3109,33.431015
3110,33.431015
3111,33.431015
3112,33.504272
3113,33.504272
3114,33.455433
3115,33.455433
3116,33.284492
3117,33.284492
3118,33.284492
3119,33.015873
3120,33.015873
3121,32.600735
3122,32.600735
3123,32.600735
3124,32.014652
3125,32.014652
3126,31.233212
3127,31.233212
3128,30.30525
3129,30.30525
3130,30.30525
3131,29.27961
3132,29.27961
3133,28.180708
3134,28.180708
3135,28.180708
3136,27.130648
3137,27.130648
3138,26.227106
3139,26.227106
3140,25.616606
3141,25.616606
3142,25.616606
3143,25.665445
3144,25.665445
3145,26.739927
3146,26.739927
3147,26.739927
3148,28.766788
3149,28.766788
3150,31.648352
3151,31.648352
3152,35.604397
3153,35.604397
3154,35.604397
3155,40.39072
3156,40.39072
3157,45.641026
3158,45.641026
3159,45.641026
3160,50.94017
3161,50.94017
3162,55.873016
3163,55.873016
3164,60.04884
3165,60.04884
3166,60.04884
3167,63.492065
3168,63.492065
3169,66.17827
3170,66.17827
3171,66.17827
3172,67.96093
3173,67.96093
3174,68.98657
3175,68.98657
3176,69.42613
3177,69.42613
3178,69.42613
3179,69.49939
3180,69.49939
3181,69.32845
3182,69.32845
3183,69.32845
3184,69.08425
3185,69.08425
3186,68.79121
3187,68.79121
3188,68.49817
3189,68.49817
3190,68.49817
3191,68.27839
3192,68.27839
3193,68.08303
3194,68.08303
3195,68.08303
3196,67.88767
3197,67.88767
3198,67.59463
3199,67.59463
3200,67.42369
3201,67.42369
3202,67.42369
3203,67.20391
3204,67.20391
3205,66.910866
3206,66.910866
3207,66.910866
3208,66.52015
3209,66.52015
3210,66.007324
3211,66.007324
3212,65.42125
3213,65.42125
3214,65.42125
3215,64.73749
3216,64.73749
3217,63.931625
3218,63.931625
3219,63.931625
3220,62.954823
3221,62.954823
3222,61.855923
3223,61.855923
3224,60.708183
3225,60.708183
3226,60.708183
3227,59.43834
3228,59.43834
3229,58.0464
3230,58.0464
3231,58.0464
3232,56.63004
3233,56.63004
3234,55.238094
3235,55.238094
3236,53.846153
3237,53.846153
3238,53.846153
3239,52.478634
3240,52.478634
3241,51.184372
3242,51.184372
3243,51.184372
3244,49.98779
3245,49.98779
3246,48.88889
3247,48.88889
3248,47.863247
3249,47.863247
3250,47.863247
3251,46.935287
3252,46.935287
3253,46.056168
3254,46.056168
3255,46.056168
3256,45.201466
3257,45.201466
3258,44.371185
3259,44.371185
3260,43.540905
3261,43.540905
3262,43.540905
3263,42.686203
3264,42.686203
3265,41.758244
3266,41.758244
3267,41.758244
3268,40.805862
3269,40.805862
3270,39.90232
3271,39.90232
3272,39.0232
3273,39.0232
3274,39.0232
3275,38.1685
3276,38.1685
3277,37.38706
3278,37.38706
3279,37.38706
3280,36.67888
3281,36.67888
3282,35.995117
3283,35.995117
3284,35.335777
3285,35.335777
3286,35.335777
3287,34.725277
3288,34.725277
3289,34.114773
3290,34.114773
3291,34.114773
3292,33.479855
3293,33.479855
3294,32.747253
3295,32.747253
3296,31.916973
3297,31.916973
3298,31.916973
3299,30.989012
3300,30.989012
3301,29.987791
3302,29.987791
3303,29.987791
3304,28.962149
3305,28.962149
3306,28.009768
3307,28.009768
3308,27.155067
3309,27.155067
3310,27.155067
3311,26.349207
3312,26.349207
3313,25.616606
3314,25.616606
3315,25.616606
3316,24.908424
3317,24.908424
3318,24.200245
3319,24.200245
3320,23.492064
3321,23.492064
3322,23.492064
3323,22.686203
3324,22.686203
3325,21.807081
3326,21.807081
3327,21.807081
3328,20.903542
3329,20.903542
3330,20.0
3331,20.0
3332,19.1453
3333,19.1453
3334,19.1453
3335,18.33944
3336,18.33944
3337,17.606838
3338,17.606838
3339,17.606838
3340,16.923077
3341,16.923077
3342,16.288157
3343,16.288157
3344,15.677656
3345,15.677656
3346,15.677656
3347,15.042735
3348,15.042735
3349,14.407815
3350,14.407815
3351,14.407815
3352,13.748474
3353,13.748474
3354,13.040294
3355,13.040294
3356,12.307693
3357,12.307693
3358,12.307693
3359,11.575091
3360,11.575091
3361,10.793651
3362,10.793651
3363,10.793651
3364,9.98779
3365,9.98779
3366,9.230769
3367,9.230769
3368,8.595849
3369,8.595849
3370,8.595849
3371,8.278388
3372,8.278388
3373,8.644689
3374,8.644689
3375,8.644689
3376,9.67033
3377,9.67033
3378,11.4529915
3379,11.4529915
3380,14.310135
3381,14.310135
3382,14.310135
3383,18.241758
3384,18.241758
3385,22.979244
3386,22.979244
3387,22.979244
3388,28.156288
3389,28.156288
3390,33.528694
3391,33.528694
3392,38.55922
3393,38.55922
3394,38.55922
3395,43.125763
3396,43.125763
3397,47.106228
3398,47.106228
3399,47.106228
3400,50.23199
3401,50.23199
3402,52.405373
3403,52.405373
3404,53.821735
3405,53.821735
3406,53.821735
3407,54.700855
3408,54.700855
3409,55.067158
3410,55.067158
3411,55.067158
3412,55.067158
3413,55.067158
3414,54.871796
3415,54.871796
3416,54.603176
3417,54.603176
3418,54.603176
3419,54.334557
3420,54.334557
3421,54.212456
3422,54.212456
3423,54.212456
3424,54.188034
3425,54.188034
3426,54.285717
3427,54.285717
3428,54.529915
3429,54.529915
3430,54.529915
3431,54.871796
3432,54.871796
3433,55.262516
3434,55.262516
3435,55.262516
3436,55.677658
3437,55.677658
3438,56.019535
3439,56.019535
3440,56.214897
3441,56.214897
3442,56.214897
3443,56.28816
3444,56.28816
3445,56.263737
3446,56.263737
3447,56.263737
3448,56.019535
3449,56.019535
3450,55.482296
3451,55.482296
3452,54.700855
3453,54.700855
3454,54.700855
3455,53.699635
3456,53.699635
3457,52.454212
3458,52.454212
3459,52.454212
3460,50.989014
3461,50.989014
3462,49.37729
3463,49.37729
3464,47.71673
3465,47.71673
3466,47.71673
3467,46.056168
3468,46.056168
3469,44.468864
3470,44.468864
3471,44.468864
3472,43.052505
3473,43.052505
3474,41.807083
3475,41.807083
3476,40.757023
3477,40.757023
3478,40.757023
3479,39.95116
3480,39.95116
3481,39.29182
3482,39.29182
3483,39.29182
3484,38.80342
3485,38.80342
3486,38.48596
3487,38.48596
3488,38.26618
3489,38.26618
3490,38.26618
3491,38.11966
3492,38.11966
3493,38.02198
3494,38.02198
3495,38.02198
3496,37.94872
3497,37.94872
3498,37.82662
3499,37.82662
3500,37.704517
3501,37.704517
3502,37.704517
3503,37.533577
3504,37.533577
3505,
3506,
3507,
3508,37.33822
3509,37.33822
3510,37.094017
3511,37.094017
3512,36.800976
3513,36.800976
3514,36.800976
3515,36.483517
3516,36.483517
3517,36.092796
3518,36.092796
3519,36.092796
3520,35.677658
3521,35.677658
3522,35.286938
3523,35.286938
3524,34.896217
3525,34.896217
3526,34.896217
3527,34.505497
3528,34.505497
3529,34.114773
3530,34.114773
3531,34.114773
3532,33.724052
3533,33.724052
3534,33.357754
3535,33.357754
3536,32.967033
3537,32.967033
3538,32.967033
3539,32.55189
3540,32.55189
3541,32.16117
3542,32.16117
3543,32.16117
3544,31.770452
3545,31.770452
3546,31.330893
3547,31.330893
3548,30.842491
3549,30.842491
3550,30.842491
3551,30.378511
3552,30.378511
3553,29.963371
3554,29.963371
3555,29.963371
3556,29.59707
3557,29.59707
3558,29.30403
3559,29.30403
3560,29.13309
3561,29.13309
3562,29.13309
3563,29.08425
3564,29.08425
3565,29.18193
3566,29.18193
3567,29.18193
3568,29.37729
3569,29.37729
3570,29.67033
3571,29.67033
3572,30.03663
3573,30.03663
3574,30.03663
3575,30.402931
3576,30.402931
3577,30.818071
3578,30.818071
3579,30.818071
3580,31.233212
3581,31.233212
3582,31.672771
3583,31.672771
3584,32.16117
3585,32.16117
3586,32.16117
3587,32.72283
3588,32.72283
3589,33.308914
3590,33.308914
3591,33.308914
3592,33.894993
3593,33.894993
3594,34.529915
3595,34.529915
3596,35.164837
3597,35.164837
3598,35.164837
3599,35.702076
3600,35.702076
3601,36.190475
3602,36.190475
3603,36.190475
3604,36.72772
3605,36.72772
3606,37.50916
3607,37.50916
3608,38.63248
3609,38.63248
3610,38.63248
3611,40.26862
3612,40.26862
3613,42.710625
3614,42.710625
3615,42.710625
3616,46.105007
3617,46.105007
3618,50.256413
3619,50.256413
3620,54.896217
3621,54.896217
3622,54.896217
3623,59.85348
3624,59.85348
3625,64.713066
3626,64.713066
3627,64.713066
3628,69.230774
3629,69.230774
3630,73.211235
3631,73.211235
3632,76.337
3633,76.337
3634,76.337
3635,78.5348
3636,78.5348
3637,79.97558
3638,79.97558
3639,79.97558
3640,80.90354
3641,80.90354
3642,81.3431
3643,81.3431
3644,81.489624
3645,81.489624
3646,81.489624
3647,81.514046
3648,81.514046
3649,81.514046
3650,81.514046
3651,81.514046
3652,81.5873
3653,81.5873
3654,81.78266
3655,81.78266
3656,82.051285
3657,82.051285
3658,82.051285
3659,82.78388
3660,82.78388
3661,83.17461
3662,83.17461
3663,83.17461
3664,83.5409
3665,83.5409
3666,83.9072
3667,83.9072
3668,84.20025
3669,84.20025
3670,84.20025
3671,84.39561
3672,84.39561
3673,84.468864
3674,84.468864
3675,84.468864
3676,84.44444
3677,84.44444
3678,84.249084
3679,84.249084
3680,83.85837
3681,83.85837
3682,83.85837
3683,83.29671
3684,83.29671
3685,82.5641
3686,82.5641
3687,82.5641
3688,81.56288
3689,81.56288
3690,80.21978
3691,80.21978
3692,78.6569
3693,78.6569
3694,78.6569
3695,76.89866
3696,76.89866
3697,74.94505
3698,74.94505
3699,74.94505
3700,72.893776
3701,72.893776
3702,70.84249
3703,70.84249
3704,68.88889
3705,68.88889
3706,68.88889
3707,67.08181
3708,67.08181
3709,65.49451
3710,65.49451
3711,65.49451
3712,64.12698
3713,64.12698
3714,62.954823
3715,62.954823
3716,62.00244
3717,62.00244
3718,62.00244
3719,61.3431
3720,61.3431
3721,60.879124
3722,60.879124
3723,60.879124
3724,60.586082
3725,60.586082
3726,60.488403
3727,60.488403
3728,60.488403
3729,60.488403
3730,60.488403
3731,60.537243
3732,60.537243
3733,60.6105
3734,60.6105
3735,60.6105
3736,60.6105
3737,60.6105
3738,60.537243
3739,60.537243
3740,60.415142
3741,60.415142
3742,60.415142
3743,60.195362
3744,60.195362
3745,59.8779
3746,59.8779
3747,59.8779
3748,59.43834
3749,59.43834
3750,58.94994
3751,58.94994
3752,58.4127
3753,58.4127
3754,58.4127
3755,57.8022
3756,57.8022
3757,57.11844
3758,57.11844
3759,57.11844
3760,56.385838
3761,56.385838
3762,55.604397
3763,55.604397
3764,54.700855
3765,54.700855
3766,54.700855
3767,53.675213
3768,53.675213
3769,52.576313
3770,52.576313
3771,52.576313
3772,51.428574
3773,51.428574
3774,50.207573
3775,50.207573
3776,48.98657
3777,48.98657
3778,48.98657
3779,47.814407
3780,47.814407
3781,46.715508
3782,46.715508
3783,46.715508
3784,45.738705
3785,45.738705
3786,44.908424
3787,44.908424
3788,44.200245
3789,44.200245
3790,44.200245
3791,43.614162
3792,43.614162
3793,43.174603
3794,43.174603
3795,43.174603
3796,42.881565
3797,42.881565
3798,42.710625
3799,42.710625
3800,42.637363
3801,42.637363
3802,42.637363
3803,42.661785
3804,42.661785
3805,42.783882
3806,42.783882
3807,42.783882
3808,42.954823
3809,42.954823
3810,43.199024
3811,43.199024
3812,43.394382
3813,43.394382
3814,43.394382
3815,43.492065
3816,43.492065
3817,43.516483
3818,43.516483
3819,43.516483
3820,43.443226
3821,43.443226
3822,43.296703
3823,43.296703
3824,43.003662
3825,43.003662
3826,43.003662
3827,42.588524
3828,42.588524
3829,42.05128
3830,42.05128
3831,42.05128
3832,41.39194
3833,41.39194
3834,40.6105
3835,40.6105
3836,39.70696
3837,39.70696
3838,39.70696
3839,38.705738
3840,38.705738
3841,37.60684
3842,37.60684
3843,37.60684
3844,36.410255
3845,36.410255
3846,35.238094
3847,35.238094
3848,34.114773
3849,34.114773
3850,34.114773
3851,33.089134
3852,33.089134
3853,32.405373
3854,32.405373
3855,32.405373
3856,32.136753
3857,32.136753
3858,32.478634
3859,32.478634
3860,33.821735
3861,33.821735
3862,33.821735
3863,36.434677
3864,36.434677
3865,40.09768
3866,40.09768
3867,40.09768
3868,44.615387
3869,44.615387
3870,49.96337
3871,49.96337
3872,55.726498
3873,55.726498
3874,55.726498
3875,61.61172
3876,61.61172
3877,67.228325
3878,67.228325
3879,67.228325
3880,72.18559
3881,72.18559
3882,76.2149
3883,76.2149
3884,79.41392
3885,79.41392
3886,79.41392
3887,81.831505
3888,81.831505
3889,
3890,
3891,
3892,83.369965
3893,83.369965
3894,84.07815
3895,84.07815
3896,84.273506
3897,84.273506
3898,84.273506
3899,84.07815
3900,84.07815
3901,83.5409
3902,83.5409
3903,83.5409
3904,82.808304
3905,82.808304
3906,81.97802
3907,81.97802
3908,81.14774
3909,81.14774
3910,81.14774
3911,80.3663
3912,80.3663
3913,79.68254
3914,79.68254
3915,79.68254
3916,79.09646
3917,79.09646
3918,78.55922
3919,78.55922
3920,78.0464
3921,78.0464
3922,78.0464
3923,77.558
3924,77.558
3925,77.11844
3926,77.11844
3927,77.11844
3928,76.67888
3929,76.67888
3930,76.2149
3931,76.2149
3932,75.70208
3933,75.70208
3934,75.70208
3935,75.116
3936,75.116
3937,74.50549
3938,74.50549
3939,74.50549
3940,73.82173
3941,73.82173
3942,72.96703
3943,72.96703
3944,71.990234
3945,71.990234
3946,71.990234
3947,70.94017
3948,70.94017
3949,69.792435
3950,69.792435
3951,69.792435
3952,68.54701
3953,68.54701
3954,67.27717
3955,67.27717
3956,66.031746
3957,66.031746
3958,66.031746
3959,64.810745
3960,64.810745
3961,63.711845
3962,63.711845
3963,63.711845
3964,62.759464
3965,62.759464
3966,61.904762
3967,61.904762
3968,61.245422
3969,61.245422
3970,61.245422
3971,60.7326
3972,60.7326
3973,60.366302
3974,60.366302
3975,60.366302
3976,60.04884
3977,60.04884
3978,59.78022
3979,59.78022
3980,59.48718
3981,59.48718
3982,59.48718
3983,59.1453
3984,59.1453
3985,58.73016
3986,58.73016
3987,58.73016
3988,58.19292
3989,58.19292
3990,57.50916
3991,57.50916
3992,56.752136
3993,56.752136
3994,56.752136
3995,55.946278
3996,55.946278
3997,55.115997
3998,55.115997
3999,55.115997
4000,54.358974
4001,54.358974
4002,53.724056
4003,53.724056
4004,53.260075
4005,53.260075
4006,53.260075
4007,53.113552
4008,53.113552
4009,53.382175
4010,53.382175
4011,53.382175
4012,53.992676
4013,53.992676
4014,54.896217
4015,54.896217
4016,56.092796
4017,56.092796
4018,56.092796
4019,57.484737
4020,57.484737
4021,58.925518
4022,58.925518
4023,58.925518
4024,60.34188
4025,60.34188
4026,61.56288
4027,61.56288
4028,62.442005
4029,62.442005
4030,62.442005
4031,63.028084
4032,63.028084
4033,63.369965
4034,63.369965
4035,63.369965
4036,63.321125
4037,63.321125
4038,62.832726
4039,62.832726
4040,62.051285
4041,62.051285
4042,62.051285
4043,61.05006
4044,61.05006
4045,59.73138
4046,59.73138
4047,59.73138
4048,58.1685
4049,58.1685
4050,56.483517
4051,56.483517
4052,54.749695
4053,54.749695
4054,54.749695
4055,52.967033
4056,52.967033
4057,51.208794
4058,51.208794
4059,51.208794
4060,49.47497
4061,49.47497
4062,47.78999
4063,47.78999
4064,46.17827
4065,46.17827
4066,46.17827
4067,44.615387
4068,44.615387
4069,43.101345
4070,43.101345
4071,43.101345
4072,41.636143
4073,41.636143
4074,40.2442
4075,40.2442
4076,38.87668
4077,38.87668
4078,38.87668
4079,37.533577
4080,37.533577
4081,36.239315
4082,36.239315
4083,36.239315
4084,34.969475
4085,34.969475
4086,33.797314
4087,33.797314
4088,32.771675
4089,32.771675
4090,32.771675
4091,31.990232
4092,31.990232
4093,31.623932
4094,31.623932
4095,31.623932
4096,32.039074
4097,32.039074
4098,33.186813
4099,33.186813
4100,35.115997
4101,35.115997
4102,35.115997
4103,38.0464
4104,38.0464
4105,41.978024
4106,41.978024
4107,41.978024
4108,46.642246
4109,46.642246
4110,51.67277
4111,51.67277
4112,56.874237
4113,56.874237
4114,56.874237
4115,61.8315
4116,61.8315
4117,66.349205
4118,66.349205
4119,66.349205
4120,73.431015
4121,73.431015
4122,75.65324
4123,75.65324
4124,77.14286
4125,77.14286
4126,77.14286
4127,78.09524
4128,78.09524
4129,78.48596
4130,78.48596
4131,78.48596
4132,78.46154
4133,78.46154
4134,78.1685
4135,78.1685
4136,77.70452
4137,77.70452
4138,77.70452
4139,77.16728
4140,77.16728
4141,76.67888
4142,76.67888
4143,76.67888
4144,76.23932
4145,76.23932
4146,75.848595
4147,75.848595
4148,75.531136
4149,75.531136
4150,75.531136
4151,75.311356
4152,75.311356
4153,75.116
4154,75.116
4155,75.116
4156,74.94505
4157,74.94505
4158,74.79854
4159,74.79854
4160,74.57876
4161,74.57876
4162,74.57876
4163,74.28571
4164,74.28571
4165,73.968254
4166,73.968254
4167,73.968254
4168,73.553116
4169,73.553116
4170,72.94261
4171,72.94261
4172,72.210014
4173,72.210014
4174,72.210014
4175,71.355316
4176,71.355316
4177,70.30525
4178,70.30525
4179,70.30525
4180,69.03541
4181,69.03541
4182,67.59463
4183,67.59463
4184,66.031746
4185,66.031746
4186,66.031746
4187,64.42003
4188,64.42003
4189,62.832726
4190,62.832726
4191,62.832726
4192,61.294262
4193,61.294262
4194,59.85348
4195,59.85348
4196,58.60806
4197,58.60806
4198,58.60806
4199,57.58242
4200,57.58242
4201,56.776558
4202,56.776558
4203,56.776558
4204,56.117218
4205,56.117218
4206,55.555557
4207,55.555557
4208,55.067158
4209,55.067158
4210,55.067158
4211,54.603176
4212,54.603176
4213,54.139194
4214,54.139194
4215,54.139194
4216,53.650795
4217,53.650795
4218,53.089134
4219,53.089134
4220,52.429794
4221,52.429794
4222,52.429794
4223,51.697193
4224,51.697193
4225,50.866913
4226,50.866913
4227,50.866913
4228,49.89011
4229,49.89011
4230,48.79121
4231,48.79121
4232,47.61905
4233,47.61905
4234,47.61905
4235,46.422466
4236,46.422466
4237,45.250305
4238,45.250305
4239,45.250305
4240,44.078144
4241,44.078144
4242,42.930405
4243,42.930405
4244,41.855923
4245,41.855923
4246,41.855923
4247,40.90354
4248,40.90354
4249,40.07326
4250,40.07326
4251,40.07326
4252,39.34066
4253,39.34066
4254,38.68132
4255,38.68132
4256,38.0464
4257,38.0464
4258,38.0464
4259,37.435898
4260,37.435898
4261,36.825397
4262,36.825397
4263,36.825397
4264,36.117218
4265,36.117218
4266,35.311356
4267,35.311356
4268,34.432236
4269,34.432236
4270,34.432236
4271,33.553116
4272,33.553116
4273,32.673992
4274,32.673992
4275,32.673992
4276,31.868132
4277,31.868132
4278,31.233212
4279,31.233212
4280,30.769232
4281,30.769232
4282,30.769232
4283,30.52503
4284,30.52503
4285,30.598291
4286,30.598291
4287,30.598291
4288,30.940172
4289,30.940172
4290,31.452991
4291,31.452991
4292,32.087914
4293,32.087914
4294,32.087914
4295,32.771675
4296,32.771675
4297,33.431015
4298,33.431015
4299,33.431015
4300,33.992676
4301,33.992676
4302,34.358974
4303,34.358974
4304,34.505497
4305,34.505497
4306,34.505497
4307,34.432236
4308,34.432236
4309,34.163616
4310,34.163616
4311,34.163616
4312,33.675213
4313,33.675213
4314,32.893772
4315,32.893772
4316,31.843712
4317,31.843712
4318,31.843712
4319,30.549452
4320,30.549452
4321,29.03541
4322,29.03541
4323,29.03541
4324,27.326008
4325,27.326008
4326,25.518927
4327,25.518927
4328,23.785105
4329,23.785105
4330,23.785105
4331,22.295483
4332,22.295483
4333,21.489622
4334,21.489622
4335,21.489622
4336,21.391941
4337,21.391941
4338,22.075703
4339,22.075703
4340,23.907204
4341,23.907204
4342,23.907204
4343,26.984127
4344,26.984127
4345,30.940172
4346,30.940172
4347,30.940172
4348,35.433456
4349,35.433456
4350,
4351,
4352,40.31746
4353,40.31746
4354,40.31746
4355,45.152626
4356,45.152626
4357,49.74359
4358,49.74359
4359,49.74359
4360,53.894997
4361,53.894997
4362,57.313797
4363,57.313797
4364,59.8779
4365,59.8779
4366,59.8779
4367,61.73382
4368,61.73382
4369,63.003666
4370,63.003666
4371,63.003666
4372,63.663006
4373,63.663006
4374,63.833946
4375,63.833946
4376,63.589745
4377,63.589745
4378,63.589745
4379,63.150185
4380,63.150185
4381,62.612946
4382,62.612946
4383,62.612946
4384,62.026863
4385,62.026863
4386,61.465202
4387,61.465202
4388,60.976803
4389,60.976803
4390,60.976803
4391,60.6105
4392,60.6105
4393,60.39072
4394,60.39072
4395,60.39072
4396,60.29304
4397,60.29304
4398,60.26862
4399,60.26862
4400,60.29304
4401,60.29304
4402,60.29304
4403,60.39072
4404,60.39072
4405,60.51282
4406,60.51282
4407,60.51282
4408,60.586082
4409,60.586082
4410,60.634922
4411,60.634922
4412,60.6105
4413,60.6105
4414,60.6105
4415,60.488403
4416,60.488403
4417,60.26862
4418,60.26862
4419,60.26862
4420,59.82906
4421,59.82906
4422,59.12088
4423,59.12088
4424,58.21734
4425,58.21734
4426,58.21734
4427,57.0696
4428,57.0696
4429,55.653236
4430,55.653236
4431,55.653236
4432,54.017094
4433,54.017094
4434,52.234432
4435,52.234432
4436,50.40293
4437,50.40293
4438,50.40293
4439,48.57143
4440,48.57143
4441,46.95971
4442,46.95971
4443,46.95971
4444,45.543346
4445,45.543346
4446,44.346764
4447,44.346764
4448,43.467644
4449,43.467644
4450,43.467644
4451,42.905983
4452,42.905983
4453,42.564102
4454,42.564102
4455,42.564102
4456,42.39316
4457,42.39316
4458,42.442
4459,42.442
4460,42.637363
4461,42.637363
4462,42.637363
4463,42.905983
4464,42.905983
4465,43.272285
4466,43.272285
4467,43.272285
4468,43.638584
4469,43.638584
4470,43.980465
4471,43.980465
4472,44.297924
4473,44.297924
4474,44.297924
4475,44.542126
4476,44.542126
4477,44.737484
4478,44.737484
4479,44.737484
4480,44.884007
4481,44.884007
4482,44.981686
4483,44.981686
4484,45.054947
4485,45.054947
4486,45.054947
4487,45.079365
4488,45.079365
4489,45.006107
4490,45.006107
4491,45.006107
4492,44.859585
4493,44.859585
4494,44.639805
4495,44.639805
4496,44.395607
4497,44.395607
4498,44.395607
4499,44.151405
4500,44.151405
4501,43.907204
4502,43.907204
4503,43.907204
4504,43.711845
4505,43.711845
4506,43.614162
4507,43.614162
4508,43.736263
4509,43.736263
4510,43.736263
4511,44.053726
4512,44.053726
4513,44.566544
4514,44.566544
4515,44.566544
4516,45.421246
4517,45.421246
4518,46.56899
4519,46.56899
4520,47.96093
4521,47.96093
4522,47.96093
4523,49.47497
4524,49.47497
4525,51.086693
4526,51.086693
4527,51.086693
4528,52.649574
4529,52.649574
4530,54.139194
4531,54.139194
4532,55.531136
4533,55.531136
4534,55.531136
4535,56.654457
4536,56.654457
4537,57.46032
4538,57.46032
4539,57.46032
4540,57.99756
4541,57.99756
4542,58.2906
4543,58.2906
4544,58.2906
4545,58.2906
4546,58.2906
4547,57.97314
4548,57.97314
4549,57.435898
4550,57.435898
4551,57.435898
4552,56.72772
4553,56.72772
4554,55.824177
4555,55.824177
4556,54.725277
4557,54.725277
4558,54.725277
4559,53.528694
4560,53.528694
4561,52.234432
4562,52.234432
4563,52.234432
4564,50.866913
4565,50.866913
4566,49.42613
4567,49.42613
4568,47.93651
4569,47.93651
4570,47.93651
4571,46.446888
4572,46.446888
4573,44.932846
4574,44.932846
4575,44.932846
4576,43.443226
4577,43.443226
4578,41.978024
4579,41.978024
4580,39.24298
4581,39.24298
4582,39.24298
4583,38.11966
4584,38.11966
4585,37.264957
4586,37.264957
4587,37.264957
4588,36.825397
4589,36.825397
4590,37.094017
4591,37.094017
4592,38.363857
4593,38.363857
4594,38.363857
4595,40.51282
4596,40.51282
4597,43.443226
4598,43.443226
4599,43.443226
4600,47.203907
4601,47.203907
4602,51.477413
4603,51.477413
4604,55.995117
4605,55.995117
4606,55.995117
4607,60.415142
4608,60.415142
4609,64.29793
4610,64.29793
4611,64.29793
4612,67.37485
4613,67.37485
4614,69.69475
4615,69.69475
4616,71.30647
4617,71.30647
4618,71.30647
4619,72.13676
4620,72.13676
4621,72.28327
4622,72.28327
4623,72.28327
4624,71.96581
4625,71.96581
4626,71.42857
4627,71.42857
4628,70.69597
4629,70.69597
4630,70.69597
4631,69.91453
4632,69.91453
4633,69.18193
4634,69.18193
4635,69.18193
4636,68.57143
4637,68.57143
4638,68.13187
4639,68.13187
4640,67.86325
4641,67.86325
4642,67.86325
4643,67.74115
4644,67.74115
4645,67.69231
4646,67.69231
4647,67.69231
4648,67.69231
4649,67.69231
4650,67.69231
4651,67.69231
4652,67.66789
4653,67.66789
4654,67.66789
4655,67.59463
4656,67.59463
4657,67.42369
4658,67.42369
4659,67.42369
4660,67.15507
4661,67.15507
4662,66.76435
4663,66.76435
4664,66.251526
4665,66.251526
4666,66.251526
4667,65.592186
4668,65.592186
4669,64.688644
4670,64.688644
4671,64.688644
4672,63.589745
4673,63.589745
4674,62.295483
4675,62.295483
4676,60.805862
4677,60.805862
4678,60.805862
4679,59.12088
4680,59.12088
4681,57.33822
4682,57.33822
4683,57.33822
4684,55.482296
4685,55.482296
4686,53.650795
4687,53.650795
4688,51.94139
4689,51.94139
4690,51.94139
4691,50.35409
4692,50.35409
4693,48.98657
4694,48.98657
4695,48.98657
4696,47.88767
4697,47.88767
4698,47.13065
4699,47.13065
4700,46.666668
4701,46.666668
4702,46.666668
4703,46.446888
4704,46.446888
4705,46.471306
4706,46.471306
4707,46.471306
4708,46.715508
4709,46.715508
4710,47.032967
4711,47.032967
4712,47.326008
4713,47.326008
4714,47.326008
4715,47.545788
4716,47.545788
4717,47.545788
4718,47.545788
4719,47.545788
4720,47.326008
4721,47.326008
4722,46.886448
4723,46.886448
4724,46.17827
4725,46.17827
4726,46.17827
4727,45.274727
4728,45.274727
4729,44.224667
4730,44.224667
4731,44.224667
4732,43.125763
4733,43.125763
4734,42.026863
4735,42.026863
4736,41.074482
4737,41.074482
4738,41.074482
4739,40.2442
4740,40.2442
4741,39.58486
4742,39.58486
4743,39.58486
4744,39.21856
4745,39.21856
4746,39.12088
4747,39.12088
4748,39.24298
4749,39.24298
4750,39.24298
4751,39.53602
4752,39.53602
4753,39.95116
4754,39.95116
4755,39.95116
4756,40.415142
4757,40.415142
4758,40.90354
4759,40.90354
4760,41.39194
4761,41.39194
4762,41.39194
4763,41.8315
4764,41.8315
4765,42.17338
4766,42.17338
4767,42.17338
4768,42.442
4769,42.442
4770,42.588524
4771,42.588524
4772,42.588524
4773,42.588524
4774,42.588524
4775,42.466423
4776,42.466423
4777,42.246643
4778,42.246643
4779,42.246643
4780,41.929184
4781,41.929184
4782,41.56288
4783,41.56288
4784,41.098904
4785,41.098904
4786,41.098904
4787,40.6105
4788,40.6105
4789,40.146523
4790,40.146523
4791,40.146523
4792,39.73138
4793,39.73138
4794,39.41392
4795,39.41392
4796,39.145298
4797,39.145298
4798,39.145298
4799,38.97436
4800,38.97436
4801,38.87668
4802,38.87668
4803,38.87668
4804,38.80342
4805,38.80342
4806,38.754578
4807,38.754578
4808,38.68132
4809,38.68132
4810,38.68132
4811,
4812,
4813,38.534798
4814,38.534798
4815,38.534798
4816,38.33944
4817,38.33944
4818,38.095238
4819,38.095238
4820,37.77778
4821,37.77778
4822,37.77778
4823,37.411476
4824,37.411476
4825,36.9475
4826,36.9475
4827,36.9475
4828,36.385838
4829,36.385838
4830,35.702076
4831,35.702076
4832,34.920635
4833,34.920635
4834,34.920635
4835,34.065933
4836,34.065933
4837,33.186813
4838,33.186813
4839,33.186813
4840,32.405373
4841,32.405373
4842,31.941393
4843,31.941393
4844,32.136753
4845,32.136753
4846,32.136753
4847,32.991455
4848,32.991455
4849,34.554337
4850,34.554337
4851,34.554337
4852,37.11844
4853,37.11844
4854,40.65934
4855,40.65934
4856,44.884007
4857,44.884007
4858,44.884007
4859,49.40171
4860,49.40171
4861,54.017094
4862,54.017094
4863,54.017094
4864,58.21734
4865,58.21734
4866,61.880344
4867,61.880344
4868,64.98169
4869,64.98169
4870,64.98169
4871,67.30159
4872,67.30159
4873,68.79121
4874,68.79121
4875,68.79121
4876,69.670334
4877,69.670334
4878,70.08547
4879,70.08547
4880,70.10989
4881,70.10989
4882,70.10989
4883,69.86569
4884,69.86569
4885,69.450554
4886,69.450554
4887,69.450554
4888,68.93773
4889,68.93773
4890,68.37607
4891,68.37607
4892,67.81441
4893,67.81441
4894,67.81441
4895,67.30159
4896,67.30159
4897,66.83761
4898,66.83761
4899,66.83761
4900,66.446884
4901,66.446884
4902,66.05617
4903,66.05617
4904,65.71429
4905,65.71429
4906,65.71429
4907,65.39683
4908,65.39683
4909,65.030525
4910,65.030525
4911,65.030525
4912,64.61539
4913,64.61539
4914,64.151405
4915,64.151405
4916,63.638584
4917,63.638584
4918,63.638584
4919,62.490845
4920,62.490845
4921,61.587303
4922,61.587303
4923,61.587303
4924,60.56166
4925,60.56166
4926,58.21734
4927,58.21734
4928,56.971916
4929,56.971916
4930,56.971916
4931,55.702076
4932,55.702076
4933,53.284492
4934,53.284492
4935,53.284492
4936,52.210014
4937,52.210014
4938,51.28205
4939,51.28205
4940,49.84127
4941,49.84127
4942,49.84127
4943,49.37729
4944,49.37729
4945,49.08425
4946,49.08425
4947,49.08425
4948,48.86447
4949,48.86447
4950,48.84005
4951,48.84005
4952,48.86447
4953,48.86447
4954,48.86447
4955,48.88889
4956,48.88889
4957,48.815628
4958,48.815628
4959,48.815628
4960,48.644688
4961,48.644688
4962,48.32723
4963,48.32723
4964,47.374847
4965,47.374847
4966,47.374847
4967,46.764347
4968,46.764347
4969,46.17827
4970,46.17827
4971,46.17827
4972,45.616608
4973,45.616608
4974,45.054947
4975,45.054947
4976,44.542126
4977,44.542126
4978,44.542126
4979,44.053726
4980,44.053726
4981,43.589745
4982,43.589745
4983,43.589745
4984,43.150185
4985,43.150185
4986,42.735043
4987,42.735043
4988,42.319904
4989,42.319904
4990,42.319904
4991,41.904762
4992,41.904762
4993,41.489624
4994,41.489624
4995,41.489624
4996,41.12332
4997,41.12332
4998,40.7326
4999,40.7326
5000,40.34188
5001,40.34188
5002,40.34188
5003,39.975582
5004,39.975582
5005,39.6337
5006,39.6337
5007,39.6337
5008,39.29182
5009,39.29182
5010,38.97436
5011,38.97436
5012,38.63248
5013,38.63248
5014,38.63248
5015,38.26618
5016,38.26618
5017,37.924297
5018,37.924297
5019,37.924297
5020,37.60684
5021,37.60684
5022,37.28938
5023,37.28938
5024,37.020756
5025,37.020756
5026,37.020756
5027,36.776558
5028,36.776558
5029,36.556778
5030,36.556778
5031,36.556778
5032,36.385838
5033,36.385838
5034,36.263737
5035,36.263737
5036,36.190475
5037,36.190475
5038,36.190475
5039,36.092796
5040,36.092796
5041,36.019535
5042,36.019535
5043,36.019535
5044,35.970695
5045,35.970695
5046,35.946278
5047,35.946278
5048,35.897438
5049,35.897438
5050,35.897438
5051,35.775337
5052,35.775337
5053,35.628815
5054,35.628815
5055,35.628815
5056,35.457874
5057,35.457874
5058,35.213676
5059,35.213676
5060,34.871796
5061,34.871796
5062,34.871796
5063,34.456654
5064,34.456654
5065,34.017094
5066,34.017094
5067,34.017094
5068,33.601955
5069,33.601955
5070,33.333332
5071,33.333332
5072,33.504272
5073,33.504272
5074,33.504272
5075,34.139194
5076,34.139194
5077,35.335777
5078,35.335777
5079,35.335777
5080,37.362637
5081,37.362637
5082,40.29304
5083,40.29304
5084,43.931625
5085,43.931625
5086,43.931625
5087,48.00977
5088,48.00977
5089,52.356533
5090,52.356533
5091,52.356533
5092,56.605618
5093,56.605618
5094,60.586082
5095,60.586082
5096,64.151405
5097,64.151405
5098,64.151405
5099,66.98413
5100,66.98413
5101,69.010994
5102,69.010994
5103,69.010994
5104,70.37851
5105,70.37851
5106,71.20879
5107,71.20879
5108,71.47741
5109,71.47741
5110,71.47741
5111,71.30647
5112,71.30647
5113,70.81807
5114,70.81807
5115,70.81807
5116,70.15873
5117,70.15873
5118,69.42613
5119,69.42613
5120,68.71795
5121,68.71795
5122,68.71795
5123,68.05861
5124,68.05861
5125,67.49695
5126,67.49695
5127,67.49695
5128,67.03297
5129,67.03297
5130,66.71551
5131,66.71551
5132,66.471306
5133,66.471306
5134,66.471306
5135,66.30037
5136,66.30037
5137,66.17827
5138,66.17827
5139,66.17827
5140,66.007324
5141,66.007324
5142,65.811966
5143,65.811966
5144,65.567764
5145,65.567764
5146,65.567764
5147,65.22588
5148,65.22588
5149,64.73749
5150,64.73749
5151,64.73749
5152,64.151405
5153,64.151405
5154,63.467644
5155,63.467644
5156,62.637363
5157,62.637363
5158,62.637363
5159,61.684982
5160,61.684982
5161,60.65934
5162,60.65934
5163,60.65934
5164,59.60928
5165,59.60928
5166,58.55922
5167,58.55922
5168,57.50916
5169,57.50916
5170,57.50916
5171,56.532356
5172,56.532356
5173,55.604397
5174,55.604397
5175,55.604397
5176,54.749695
5177,54.749695
5178,53.968254
5179,53.968254
5180,53.260075
5181,53.260075
5182,53.260075
5183,52.698414
5184,52.698414
5185,52.210014
5186,52.210014
5187,52.210014
5188,51.794872
5189,51.794872
5190,51.526253
5191,51.526253
5192,51.306473
5193,51.306473
5194,51.306473
5195,
5196,
5197,51.135532
5198,51.135532
5199,51.135532
5200,50.964592
5201,50.964592
5202,50.818073
5203,50.818073
5204,50.598293
5205,50.598293
5206,50.598293
5207,50.23199
5208,50.23199
5209,49.79243
5210,49.79243
5211,49.79243
5212,49.27961
5213,49.27961
5214,48.69353
5215,48.69353
5216,48.034187
5217,48.034187
5218,48.034187
5219,47.374847
5220,47.374847
5221,46.764347
5222,46.764347
5223,46.764347
5224,46.251526
5225,46.251526
5226,45.811966
5227,45.811966
5228,45.396828
5229,45.396828
5230,45.396828
5231,45.006107
5232,45.006107
5233,44.664227
5234,44.664227
5235,44.664227
5236,44.297924
5237,44.297924
5238,43.858364
5239,43.858364
5240,43.369965
5241,43.369965
5242,43.369965
5243,42.83272
5244,42.83272
5245,42.295483
5246,42.295483
5247,42.295483
5248,41.73382
5249,41.73382
5250,41.147743
5251,41.147743
5252,40.56166
5253,40.56166
5254,40.56166
5255,40.0
5256,40.0
5257,39.48718
5258,39.48718
5259,39.48718
5260,39.0232
5261,39.0232
5262,38.58364
5263,38.58364
5264,38.21734
5265,38.21734
5266,38.21734
5267,37.89988
5268,37.89988
5269,37.60684
5270,37.60684
5271,37.60684
5272,37.313797
5273,37.313797
5274,36.996338
5275,36.996338
5276,36.703297
5277,36.703297
5278,36.703297
5279,36.410255
5280,36.410255
5281,36.092796
5282,36.092796
5283,36.092796
5284,35.775337
5285,35.775337
5286,35.506718
5287,35.506718
5288,35.213676
5289,35.213676
5290,35.213676
5291,34.920635
5292,34.920635
5293,34.627594
5294,34.627594
5295,34.627594
5296,34.285713
5297,34.285713
5298,33.894993
5299,33.894993
5300,33.479855
5301,33.479855
5302,33.479855
5303,33.064713
5304,33.064713
5305,32.625153
5306,32.625153
5307,32.625153
5308,32.16117
5309,32.16117
5310,31.697193
5311,31.697193
5312,31.208792
5313,31.208792
5314,31.208792
5315,30.72039
5316,30.72039
5317,30.25641
5318,30.25641
5319,30.25641
5320,29.86569
5321,29.86569
5322,29.62149
5323,29.62149
5324,29.79243
5325,29.79243
5326,29.79243
5327,30.354092
5328,30.354092
5329,31.428572
5330,31.428572
5331,31.428572
5332,33.357754
5333,33.357754
5334,36.263737
5335,36.263737
5336,39.92674
5337,39.92674
5338,39.92674
5339,44.078144
5340,44.078144
5341,48.57143
5342,48.57143
5343,48.57143
5344,53.015873
5345,53.015873
5346,57.216118
5347,57.216118
5348,60.95238
5349,60.95238
5350,60.95238
5351,63.980465
5352,63.980465
5353,66.17827
5354,66.17827
5355,66.17827
5356,67.64347
5357,67.64347
5358,68.49817
5359,68.49817
5360,68.76679
5361,68.76679
5362,68.76679
5363,68.59585
5364,68.59585
5365,68.15629
5366,68.15629
5367,68.15629
5368,67.570206
5369,67.570206
5370,66.93529
5371,66.93529
5372,66.349205
5373,66.349205
5374,66.349205
5375,65.86081
5376,65.86081
5377,65.470085
5378,65.470085
5379,65.470085
5380,65.20147
5381,65.20147
5382,65.030525
5383,65.030525
5384,64.95727
5385,64.95727
5386,64.95727
5387,64.932846
5388,64.932846
5389,64.932846
5390,64.932846
5391,64.932846
5392,64.908424
5393,64.908424
5394,64.85959
5395,64.85959
5396,64.76191
5397,64.76191
5398,64.76191
5399,64.56654
5400,64.56654
5401,64.249084
5402,64.249084
5403,64.249084
5404,63.858364
5405,63.858364
5406,63.345543
5407,63.345543
5408,62.661785
5409,62.661785
5410,62.661785
5411,61.78266
5412,61.78266
5413,60.757023
5414,60.757023
5415,60.757023
5416,59.65812
5417,59.65812
5418,58.46154
5419,58.46154
5420,57.1917
5421,57.1917
5422,57.1917
5423,55.946278
5424,55.946278
5425,53.601955
5426,53.601955
5427,53.601955
5428,52.576313
5429,52.576313
5430,51.648354
5431,51.648354
5432,50.84249
5433,50.84249
5434,50.84249
5435,50.15873
5436,50.15873
5437,49.62149
5438,49.62149
5439,49.62149
5440,49.20635
5441,49.20635
5442,48.88889
5443,48.88889
5444,48.644688
5445,48.644688
5446,48.644688
5447,48.44933
5448,48.44933
5449,48.27839
5450,48.27839
5451,48.27839
5452,48.13187
5453,48.13187
5454,47.96093
5455,47.96093
5456,47.71673
5457,47.71673
5458,47.71673
5459,47.423687
5460,47.423687
5461,47.106228
5462,47.106228
5463,47.106228
5464,46.715508
5465,46.715508
5466,46.227108
5467,46.227108
5468,45.689865
5469,45.689865
5470,45.689865
5471,45.103786
5472,45.103786
5473,44.517704
5474,44.517704
5475,44.517704
5476,43.980465
5477,43.980465
5478,43.492065
5479,43.492065
5480,43.052505
5481,43.052505
5482,43.052505
5483,42.661785
5484,42.661785
5485,42.319904
5486,42.319904
5487,42.319904
5488,42.026863
5489,42.026863
5490,41.758244
5491,41.758244
5492,41.44078
5493,41.44078
5494,41.44078
5495,41.12332
5496,41.12332
5497,40.78144
5498,40.78144
5499,40.78144
5500,40.39072
5501,40.39072
5502,39.95116
5503,39.95116
5504,39.43834
5505,39.43834
5506,39.43834
5507,38.87668
5508,38.87668
5509,38.26618
5510,38.26618
5511,38.26618
5512,37.63126
5513,37.63126
5514,36.971916
5515,36.971916
5516,36.312576
5517,36.312576
5518,36.312576
5519,35.726498
5520,35.726498
5521,35.213676
5522,35.213676
5523,35.213676
5524,34.774117
5525,34.774117
5526,34.407814
5527,34.407814
5528,34.139194
5529,34.139194
5530,34.139194
5531,33.943836
5532,33.943836
5533,33.772896
5534,33.772896
5535,33.772896
5536,33.601955
5537,33.601955
5538,33.431015
5539,33.431015
5540,33.260075
5541,33.260075
5542,33.260075
5543,33.040295
5544,33.040295
5545,32.820515
5546,32.820515
5547,32.820515
5548,32.55189
5549,32.55189
5550,32.258854
5551,32.258854
5552,31.941393
5553,31.941393
5554,31.941393
5555,31.623932
5556,31.623932
5557,31.282051
5558,31.282051
5559,31.282051
5560,30.86691
5561,30.86691
5562,30.354092
5563,30.354092
5564,29.81685
5565,29.81685
5566,29.81685
5567,29.23077
5568,29.23077
5569,28.59585
5570,28.59585
5571,28.59585
5572,28.083029
5573,28.083029
5574,27.741148
5575,27.741148
5576,27.741148
5577,27.741148
5578,27.741148
5579,28.376068
5580,28.376068
5581,29.987791
5582,29.987791
5583,29.987791
5584,32.454212
5585,32.454212
5586,35.653236
5587,35.653236
5588,39.65812
5589,39.65812
5590,39.65812
5591,44.224667
5592,44.224667
5593,49.05983
5594,49.05983
5595,49.05983
5596,53.797314
5597,53.797314
5598,58.11966
5599,58.11966
5600,61.73382
5601,61.73382
5602,61.73382
5603,64.688644
5604,64.688644
5605,67.03297
5606,67.03297
5607,67.03297
5608,68.66911
5609,68.66911
5610,69.670334
5611,69.670334
5612,70.25641
5613,70.25641
5614,70.25641
5615,70.573875
5616,70.573875
5617,70.64713
5618,70.64713
5619,70.64713
5620,70.62271
5621,70.62271
5622,70.54945
5623,70.54945
5624,70.47619
5625,70.47619
5626,70.47619
5627,70.40293
5628,70.40293
5629,70.37851
5630,70.37851
5631,70.37851
5632,70.35409
5633,70.35409
5634,70.30525
5635,70.30525
5636,70.20757
5637,70.20757
5638,70.20757
5639,70.06105
5640,70.06105
5641,69.84127
5642,69.84127
5643,69.84127
5644,69.54823
5645,69.54823
5646,69.18193
5647,69.18193
5648,68.74237
5649,68.74237
5650,68.74237
5651,68.229546
5652,68.229546
5653,67.66789
5654,67.66789
5655,67.66789
5656,
5657,
5658,67.08181
5659,67.08181
5660,66.37363
5661,66.37363
5662,66.37363
5663,65.567764
5664,65.567764
5665,64.688644
5666,64.688644
5667,64.688644
5668,63.663006
5669,63.663006
5670,62.515263
5671,62.515263
5672,61.245422
5673,61.245422
5674,61.245422
5675,59.926743
5676,59.926743
5677,58.55922
5678,58.55922
5679,58.55922
5680,57.216118
5681,57.216118
5682,55.970695
5683,55.970695
5684,54.822956
5685,54.822956
5686,54.822956
5687,53.870575
5688,53.870575
5689,53.089134
5690,53.089134
5691,53.089134
5692,52.478634
5693,52.478634
5694,52.039074
5695,52.039074
5696,51.72161
5697,51.72161
5698,51.72161
5699,51.50183
5700,51.50183
5701,51.379734
5702,51.379734
5703,51.379734
5704,51.28205
5705,51.28205
5706,51.208794
5707,51.208794
5708,51.086693
5709,51.086693
5710,51.086693
5711,50.915752
5712,50.915752
5713,50.744812
5714,50.744812
5715,50.744812
5716,50.476192
5717,50.476192
5718,50.10989
5719,50.10989
5720,49.67033
5721,49.67033
5722,49.67033
5723,49.20635
5724,49.20635
5725,48.66911
5726,48.66911
5727,48.66911
5728,48.05861
5729,48.05861
5730,47.423687
5731,47.423687
5732,46.78877
5733,46.78877
5734,46.78877
5735,46.105007
5736,46.105007
5737,45.396828
5738,45.396828
5739,45.396828
5740,44.713066
5741,44.713066
5742,44.029305
5743,44.029305
5744,43.345543
5745,43.345543
5746,43.345543
5747,42.661785
5748,42.661785
5749,41.978024
5750,41.978024
5751,41.978024
5752,41.294262
5753,41.294262
5754,40.634922
5755,40.634922
5756,39.975582
5757,39.975582
5758,39.975582
5759,39.36508
5760,39.36508
5761,38.754578
5762,38.754578
5763,38.754578
5764,38.1685
5765,38.1685
5766,37.63126
5767,37.63126
5768,37.11844
5769,37.11844
5770,37.11844
5771,36.630035
5772,36.630035
5773,36.190475
5774,36.190475
5775,36.190475
5776,35.750916
5777,35.750916
5778,35.311356
5779,35.311356
5780,34.871796
5781,34.871796
5782,34.871796
5783,34.456654
5784,34.456654
5785,34.065933
5786,34.065933
5787,34.065933
5788,33.675213
5789,33.675213
5790,33.308914
5791,33.308914
5792,32.918194
5793,32.918194
5794,32.918194
5795,32.55189
5796,32.55189
5797,32.234432
5798,32.234432
5799,32.234432
5800,31.941393
5801,31.941393
5802,31.648352
5803,31.648352
5804,31.355312
5805,31.355312
5806,31.355312
5807,31.08669
5808,31.08669
5809,30.842491
5810,30.842491
5811,30.842491
5812,30.622711
5813,30.622711
5814,30.378511
5815,30.378511
5816,30.10989
5817,30.10989
5818,30.10989
5819,29.79243
5820,29.79243
5821,29.40171
5822,29.40171
5823,29.40171
5824,28.98657
5825,28.98657
5826,28.571428
5827,28.571428
5828,28.180708
5829,28.180708
5830,28.180708
5831,27.985348
5832,27.985348
5833,28.302809
5834,28.302809
5835,28.302809
5836,29.18193
5837,29.18193
5838,30.69597
5839,30.69597
5840,33.137974
5841,33.137974
5842,33.137974
5843,36.605618
5844,36.605618
5845,40.83028
5846,40.83028
5847,40.83028
5848,45.445667
5849,45.445667
5850,50.305252
5851,50.305252
5852,54.969475
5853,54.969475
5854,54.969475
5855,59.2674
5856,59.2674
5857,63.028084
5858,63.028084
5859,63.028084
5860,65.98291
5861,65.98291
5862,68.03419
5863,68.03419
5864,69.37729
5865,69.37729
5866,69.37729
5867,70.18315
5868,70.18315
5869,70.451775
5870,70.451775
5871,70.451775
5872,70.35409
5873,70.35409
5874,70.03663
5875,70.03663
5876,69.59707
5877,69.59707
5878,69.59707
5879,69.13309
5880,69.13309
5881,68.71795
5882,68.71795
5883,68.71795
5884,68.32723
5885,68.32723
5886,67.86325
5887,67.86325
5888,67.81441
5889,67.81441
5890,67.81441
5891,67.86325
5892,67.86325
5893,67.98535
5894,67.98535
5895,67.98535
5896,68.10745
5897,68.10745
5898,68.18071
5899,68.18071
5900,68.18071
5901,68.18071
5902,68.18071
5903,68.10745
5904,68.10745
5905,67.88767
5906,67.88767
5907,67.88767
5908,67.448105
5909,67.448105
5910,66.86203
5911,66.86203
5912,66.10501
5913,66.10501
5914,66.10501
5915,65.128204
5916,65.128204
5917,63.980465
5918,63.980465
5919,63.980465
5920,62.710625
5921,62.710625
5922,61.39194
5923,61.39194
5924,60.04884
5925,60.04884
5926,60.04884
5927,58.779
5928,58.779
5929,57.60684
5930,57.60684
5931,57.60684
5932,56.532356
5933,56.532356
5934,55.579975
5935,55.579975
5936,54.798534
5937,54.798534
5938,54.798534
5939,54.212456
5940,54.212456
5941,53.797314
5942,53.797314
5943,53.797314
5944,53.577534
5945,53.577534
5946,53.479855
5947,53.479855
5948,53.479855
5949,53.479855
5950,53.479855
5951,53.528694
5952,53.528694
5953,53.577534
5954,53.577534
5955,53.577534
5956,53.577534
5957,53.577534
5958,53.528694
5959,53.528694
5960,53.406593
5961,53.406593
5962,53.406593
5963,53.186813
5964,53.186813
5965,52.844933
5966,52.844933
5967,52.844933
5968,52.454212
5969,52.454212
5970,52.039074
5971,52.039074
5972,51.599514
5973,51.599514
5974,51.599514
5975,51.11111
5976,51.11111
5977,50.598293
5978,50.598293
5979,50.598293
5980,50.085472
5981,50.085472
5982,49.54823
5983,49.54823
5984,48.93773
5985,48.93773
5986,48.93773
5987,48.27839
5988,48.27839
5989,47.643467
5990,47.643467
5991,47.643467
5992,46.984127
5993,46.984127
5994,46.275948
5995,46.275948
5996,45.592186
5997,45.592186
5998,45.592186
5999,44.908424
6000,44.908424
6001,44.249084
6002,44.249084
6003,44.249084
6004,43.589745
6005,43.589745
6006,42.954823
6007,42.954823
6008,42.368744
6009,42.368744
6010,42.368744
6011,41.8315
6012,41.8315
6013,41.294262
6014,41.294262
6015,41.294262
6016,40.78144
6017,40.78144
6018,40.29304
6019,40.29304
6020,39.78022
6021,39.78022
6022,39.78022
6023,39.21856
6024,39.21856
6025,38.63248
6026,38.63248
6027,38.63248
6028,38.07082
6029,38.07082
6030,37.533577
6031,37.533577
6032,37.045177
6033,37.045177
6034,37.045177
6035,36.630035
6036,36.630035
6037,36.263737
6038,36.263737
6039,36.263737
6040,35.946278
6041,35.946278
6042,35.653236
6043,35.653236
6044,35.384617
6045,35.384617
6046,35.384617
6047,35.091576
6048,35.091576
6049,34.749695
6050,34.749695
6051,34.749695
6052,34.358974
6053,34.358974
6054,33.919415
6055,33.919415
6056,33.431015
6057,33.431015
6058,33.431015
6059,32.893772
6060,32.893772
6061,32.33211
6062,32.33211
6063,32.33211
6064,31.770452
6065,31.770452
6066,31.330893
6067,31.330893
6068,31.159952
6069,31.159952
6070,31.159952
6071,31.526253
6072,31.526253
6073,32.429794
6074,32.429794
6075,32.429794
6076,33.968254
6077,33.968254
6078,36.434677
6079,36.434677
6080,39.80464
6081,39.80464
6082,39.80464
6083,43.907204
6084,43.907204
6085,48.424908
6086,48.424908
6087,48.424908
6088,53.186813
6089,53.186813
6090,57.72894
6091,57.72894
6092,61.880344
6093,61.880344
6094,61.880344
6095,65.54335
6096,65.54335
6097,68.47375
6098,68.47375
6099,68.47375
6100,70.54945
6101,70.54945
6102,71.91698
6103,71.91698
6104,72.72283
6105,72.72283
6106,72.72283
6107,73.04029
6108,73.04029
6109,73.06471
6110,73.06471
6111,73.06471
6112,72.869354
6113,72.869354
6114,72.60073
6115,72.60073
6116,
6117,
6118,
6119,72.38095
6120,72.38095
6121,72.210014
6122,72.210014
6123,72.210014
6124,72.112335
6125,72.112335
6126,72.08791
6127,72.08791
6128,72.13676
6129,72.13676
6130,72.13676
6131,72.234436
6132,72.234436
6133,72.35654
6134,72.35654
6135,72.35654
6136,72.50305
6137,72.50305
6138,72.57632
6139,72.57632
6140,72.551895
6141,72.551895
6142,72.551895
6143,72.50305
6144,72.50305
6145,72.38095
6146,72.38095
6147,72.38095
6148,72.112335
6149,72.112335
6150,71.72161
6151,71.72161
6152,71.233215
6153,71.233215
6154,71.233215
6155,70.573875
6156,70.573875
6157,69.670334
6158,69.670334
6159,69.670334
6160,68.52259
6161,68.52259
6162,67.15507
6163,67.15507
6164,65.66544
6165,65.66544
6166,65.66544
6167,64.029305
6168,64.029305
6169,62.295483
6170,62.295483
6171,62.295483
6172,60.586082
6173,60.586082
6174,58.97436
6175,58.97436
6176,57.50916
6177,57.50916
6178,57.50916
6179,56.214897
6180,56.214897
6181,55.115997
6182,55.115997
6183,55.115997
6184,54.236874
6185,54.236874
6186,53.577534
6187,53.577534
6188,53.089134
6189,53.089134
6190,53.089134
6191,52.72283
6192,52.72283
6193,52.454212
6194,52.454212
6195,52.454212
6196,52.185593
6197,52.185593
6198,51.916973
6199,51.916973
6200,51.62393
6201,51.62393
6202,51.62393
6203,51.306473
6204,51.306473
6205,50.964592
6206,50.964592
6207,50.964592
6208,50.54945
6209,50.54945
6210,50.036633
6211,50.036633
6212,49.40171
6213,49.40171
6214,49.40171
6215,48.62027
6216,48.62027
6217,47.66789
6218,47.66789
6219,47.66789
6220,46.544567
6221,46.544567
6222,45.347984
6223,45.347984
6224,44.053726
6225,44.053726
6226,44.053726
6227,42.661785
6228,42.661785
6229,41.26984
6230,41.26984
6231,41.26984
6232,39.92674
6233,39.92674
6234,38.68132
6235,38.68132
6236,37.50916
6237,37.50916
6238,37.50916
6239,36.4591
6240,36.4591
6241,35.555557
6242,35.555557
6243,35.555557
6244,34.798534
6245,34.798534
6246,34.236874
6247,34.236874
6248,33.797314
6249,33.797314
6250,33.797314
6251,33.504272
6252,33.504272
6253,33.357754
6254,33.357754
6255,33.357754
6256,33.308914
6257,33.308914
6258,33.333332
6259,33.333332
6260,33.406593
6261,33.406593
6262,33.406593
6263,33.504272
6264,33.504272
6265,33.577534
6266,33.577534
6267,33.577534
6268,33.577534
6269,33.577534
6270,33.308914
6271,33.308914
6272,32.967033
6273,32.967033
6274,32.967033
6275,32.478634
6276,32.478634
6277,31.843712
6278,31.843712
6279,31.843712
6280,31.013432
6281,31.013432
6282,29.93895
6283,29.93895
6284,28.69353
6285,28.69353
6286,28.69353
6287,27.326008
6288,27.326008
6289,25.836386
6290,25.836386
6291,25.836386
6292,24.297924
6293,24.297924
6294,22.783884
6295,22.783884
6296,21.343102
6297,21.343102
6298,21.343102
6299,20.04884
6300,20.04884
6301,19.0232
6302,19.0232
6303,19.0232
6304,18.192919
6305,18.192919
6306,17.533577
6307,17.533577
6308,17.069597
6309,17.069597
6310,17.069597
6311,16.752136
6312,16.752136
6313,16.483517
6314,16.483517
6315,16.483517
6316,16.263737
6317,16.263737
6318,16.068377
6319,16.068377
6320,16.019537
6321,16.019537
6322,16.019537
6323,16.117216
6324,16.117216
6325,16.459097
6326,16.459097
6327,16.459097
6328,17.338217
6329,17.338217
6330,19.12088
6331,19.12088
6332,21.782661
6333,21.782661
6334,21.782661
6335,25.274725
6336,25.274725
6337,29.84127
6338,29.84127
6339,29.84127
6340,35.286938
6341,35.286938
6342,41.318684
6343,41.318684
6344,47.44811
6345,47.44811
6346,47.44811
6347,53.333336
6348,53.333336
6349,58.48596
6350,58.48596
6351,58.48596
6352,62.857143
6353,62.857143
6354,66.37363
6355,66.37363
6356,68.81563
6357,68.81563
6358,68.81563
6359,70.231995
6360,70.231995
6361,70.891335
6362,70.891335
6363,70.891335
6364,71.111115
6365,71.111115
6366,70.98901
6367,70.98901
6368,70.76923
6369,70.76923
6370,70.76923
6371,70.54945
6372,70.54945
6373,70.42735
6374,70.42735
6375,70.42735
6376,70.451775
6377,70.451775
6378,70.64713
6379,70.64713
6380,70.96459
6381,70.96459
6382,70.96459
6383,71.330894
6384,71.330894
6385,71.69719
6386,71.69719
6387,71.69719
6388,72.014656
6389,72.014656
6390,72.30769
6391,72.30769
6392,72.50305
6393,72.50305
6394,72.50305
6395,72.57632
6396,72.57632
6397,72.47863
6398,72.47863
6399,72.47863
6400,72.25885
6401,72.25885
6402,71.91698
6403,71.91698
6404,71.355316
6405,71.355316
6406,71.355316
6407,70.573875
6408,70.573875
6409,69.64591
6410,69.64591
6411,69.64591
6412,68.62027
6413,68.62027
6414,67.49695
6415,67.49695
6416,66.30037
6417,66.30037
6418,66.30037
6419,65.07937
6420,65.07937
6421,63.858364
6422,63.858364
6423,63.858364
6424,62.686203
6425,62.686203
6426,61.587303
6427,61.587303
6428,60.56166
6429,60.56166
6430,60.56166
6431,59.56044
6432,59.56044
6433,58.534798
6434,58.534798
6435,58.534798
6436,57.46032
6437,57.46032
6438,56.312576
6439,56.312576
6440,55.115997
6441,55.115997
6442,55.115997
6443,53.968254
6444,53.968254
6445,52.942616
6446,52.942616
6447,52.942616
6448,52.087914
6449,52.087914
6450,51.379734
6451,51.379734
6452,50.76923
6453,50.76923
6454,50.76923
6455,50.15873
6456,50.15873
6457,49.45055
6458,49.45055
6459,49.45055
6460,48.66911
6461,48.66911
6462,47.814407
6463,47.814407
6464,47.00855
6465,47.00855
6466,47.00855
6467,46.373627
6468,46.373627
6469,45.95849
6470,45.95849
6471,45.95849
6472,45.860806
6473,45.860806
6474,46.105007
6475,46.105007
6476,46.56899
6477,46.56899
6478,46.56899
6479,47.155067
6480,47.155067
6481,47.74115
6482,47.74115
6483,47.74115
6484,48.18071
6485,48.18071
6486,48.49817
6487,48.49817
6488,48.74237
6489,48.74237
6490,48.74237
6491,48.91331
6492,48.91331
6493,49.08425
6494,49.08425
6495,49.08425
6496,49.30403
6497,49.30403
6498,49.67033
6499,49.67033
6500,
6501,
6502,
6503,50.18315
6504,50.18315
6505,50.76923
6506,50.76923
6507,50.76923
6508,51.355312
6509,51.355312
6510,51.89255
6511,51.89255
6512,52.185593
6513,52.185593
6514,52.185593
6515,52.136753
6516,52.136753
6517,51.84371
6518,51.84371
6519,51.84371
6520,51.355312
6521,51.355312
6522,50.647133
6523,50.647133
6524,49.71917
6525,49.71917
6526,49.71917
6527,48.66911
6528,48.66911
6529,47.545788
6530,47.545788
6531,47.545788
6532,46.251526
6533,46.251526
6534,44.786327
6535,44.786327
6536,43.223442
6537,43.223442
6538,43.223442
6539,41.61172
6540,41.61172
6541,40.0
6542,40.0
6543,40.0
6544,38.43712
6545,38.43712
6546,36.9475
6547,36.9475
6548,35.604397
6549,35.604397
6550,35.604397
6551,34.456654
6552,34.456654
6553,33.577534
6554,33.577534
6555,33.577534
6556,32.918194
6557,32.918194
6558,32.429794
6559,32.429794
6560,32.06349
6561,32.06349
6562,32.06349
6563,31.721613
6564,31.721613
6565,31.379732
6566,31.379732
6567,31.379732
6568,30.91575
6569,30.91575
6570,30.13431
6571,30.13431
6572,28.937729
6573,28.937729
6574,28.937729
6575,27.399267
6576,27.399267
6577,25.518927
6578,25.518927
6579,25.518927
6580,23.199024
6581,23.199024
6582,20.3663
6583,20.3663
6584,17.191698
6585,17.191698
6586,17.191698
6587,13.846154
6588,13.846154
6589,10.476191
6590,10.476191
6591,10.476191
6592,7.5213675
6593,7.5213675
6594,5.1282053
6595,5.1282053
6596,3.6141636
6597,3.6141636
6598,3.6141636
6599,3.5409036
6600,3.5409036
6601,5.2747254
6602,5.2747254
6603,5.2747254
6604,8.449328
6605,8.449328
6606,12.771673
6607,12.771673
6608,18.241758
6609,18.241758
6610,18.241758
6611,24.273504
6612,24.273504
6613,30.47619
6614,30.47619
6615,30.47619
6616,36.483517
6617,36.483517
6618,41.8315
6619,41.8315
6620,46.202686
6621,46.202686
6622,46.202686
6623,49.71917
6624,49.71917
6625,52.527473
6626,52.527473
6627,52.527473
6628,54.505497
6629,54.505497
6630,55.750916
6631,55.750916
6632,56.50794
6633,56.50794
6634,56.50794
6635,56.89866
6636,56.89866
6637,56.971916
6638,56.971916
6639,56.971916
6640,56.703297
6641,56.703297
6642,56.141636
6643,56.141636
6644,55.360195
6645,55.360195
6646,55.360195
6647,54.236874
6648,54.236874
6649,52.698414
6650,52.698414
6651,52.698414
6652,50.818073
6653,50.818073
6654,48.79121
6655,48.79121
6656,46.593407
6657,46.593407
6658,46.593407
6659,44.346764
6660,44.346764
6661,42.197803
6662,42.197803
6663,42.197803
6664,40.17094
6665,40.17094
6666,38.2906
6667,38.2906
6668,36.556778
6669,36.556778
6670,36.556778
6671,34.993896
6672,34.993896
6673,33.577534
6674,33.577534
6675,33.577534
6676,32.380955
6677,32.380955
6678,31.550673
6679,31.550673
6680,31.08669
6681,31.08669
6682,31.08669
6683,31.037851
6684,31.037851
6685,31.575092
6686,31.575092
6687,31.575092
6688,32.698414
6689,32.698414
6690,34.261295
6691,34.261295
6692,36.190475
6693,36.190475
6694,36.190475
6695,38.48596
6696,38.48596
6697,41.12332
6698,41.12332
6699,41.12332
6700,44.004887
6701,44.004887
6702,47.106228
6703,47.106228
6704,50.427353
6705,50.427353
6706,50.427353
6707,53.846153
6708,53.846153
6709,57.28938
6710,57.28938
6711,57.28938
6712,60.634922
6713,60.634922
6714,63.809525
6715,63.809525
6716,66.691086
6717,66.691086
6718,66.691086
6719,69.27961
6720,69.27961
6721,71.575096
6722,71.575096
6723,71.575096
6724,73.528694
6725,73.528694
6726,75.14042
6727,75.14042
6728,76.48352
6729,76.48352
6730,76.48352
6731,78.48596
6732,78.48596
6733,79.16972
6734,79.16972
6735,79.16972
6736,79.65812
6737,79.65812
6738,79.97558
6739,79.97558
6740,80.04884
6741,80.04884
6742,80.04884
6743,79.82906
6744,79.82906
6745,79.43834
6746,79.43834
6747,79.43834
6748,78.9011
6749,78.9011
6750,78.21734
6751,78.21734
6752,77.4359
6753,77.4359
6754,77.4359
6755,76.60562
6756,76.60562
6757,75.77534
6758,75.77534
6759,75.77534
6760,74.89622
6761,74.89622
6762,73.895
6763,73.895
6764,72.7961
6765,72.7961
6766,72.7961
6767,71.62393
6768,71.62393
6769,70.30525
6770,70.30525
6771,70.30525
6772,68.81563
6773,68.81563
6774,67.15507
6775,67.15507
6776,65.372406
6777,65.372406
6778,65.372406
6779,63.492065
6780,63.492065
6781,61.489624
6782,61.489624
6783,61.489624
6784,59.41392
6785,59.41392
6786,57.362637
6787,57.362637
6788,55.409035
6789,55.409035
6790,55.409035
6791,53.650795
6792,53.650795
6793,52.11233
6794,52.11233
6795,52.11233
6796,50.818073
6797,50.818073
6798,49.89011
6799,49.89011
6800,49.25519
6801,49.25519
6802,49.25519
6803,48.84005
6804,48.84005
6805,48.595848
6806,48.595848
6807,48.595848
6808,48.44933
6809,48.44933
6810,48.27839
6811,48.27839
6812,48.08303
6813,48.08303
6814,48.08303
6815,47.83883
6816,47.83883
6817,47.52137
6818,47.52137
6819,47.52137
6820,47.081806
6821,47.081806
6822,46.56899
6823,46.56899
6824,46.031746
6825,46.031746
6826,46.031746
6827,45.421246
6828,45.421246
6829,44.737484
6830,44.737484
6831,44.737484
6832,44.004887
6833,44.004887
6834,43.321125
6835,43.321125
6836,42.83272
6837,42.83272
6838,42.83272
6839,42.783882
6840,42.783882
6841,43.223442
6842,43.223442
6843,43.223442
6844,44.249084
6845,44.249084
6846,46.153847
6847,46.153847
6848,49.035408
6849,49.035408
6850,49.035408
6851,52.625153
6852,52.625153
6853,56.67888
6854,56.67888
6855,56.67888
6856,61.05006
6857,61.05006
6858,65.29915
6859,65.29915
6860,69.27961
6861,69.27961
6862,69.27961
6863,72.84493
6864,72.84493
6865,75.726494
6866,75.726494
6867,75.726494
6868,77.851036
6869,77.851036
6870,79.31624
6871,79.31624
6872,80.26862
6873,80.26862
6874,80.26862
6875,80.732605
6876,80.732605
6877,80.78144
6878,80.78144
6879,80.78144
6880,80.56166
6881,80.56166
6882,80.21978
6883,80.21978
6884,79.80464
6885,79.80464
6886,79.80464
6887,79.36508
6888,79.36508
6889,78.97436
6890,78.97436
6891,78.97436
6892,78.63248
6893,78.63248
6894,78.36386
6895,78.36386
6896,78.19292
6897,78.19292
6898,78.19292
6899,78.070816
6900,78.070816
6901,78.02198
6902,78.02198
6903,78.02198
6904,77.97314
6905,77.97314
6906,77.87546
6907,77.87546
6908,77.728935
6909,77.728935
6910,77.728935
6911,77.509155
6912,77.509155
6913,77.14286
6914,77.14286
6915,77.14286
6916,76.630035
6917,76.630035
6918,75.970695
6919,75.970695
6920,75.16483
6921,75.16483
6922,75.16483
6923,74.11478
6924,74.11478
6925,72.84493
6926,72.84493
6927,72.84493
6928,71.40415
6929,71.40415
6930,69.84127
6931,69.84127
6932,68.15629
6933,68.15629
6934,68.15629
6935,66.42247
6936,66.42247
6937,64.66422
6938,64.66422
6939,64.66422
6940,62.930405
6941,62.930405
6942,61.245422
6943,61.245422
6944,59.6337
6945,59.6337
6946,59.6337
6947,58.19292
6948,58.19292
6949,56.923077
6950,56.923077
6951,56.923077
6952,55.824177
6953,55.824177
6954,54.920635
6955,54.920635
6956,54.212456
6957,54.212456
6958,54.212456
6959,53.675213
6960,53.675213
6961,
6962,
6963,
6964,53.308914
6965,53.308914
6966,53.040295
6967,53.040295
6968,52.844933
6969,52.844933
6970,52.844933
6971,52.72283
6972,52.72283
6973,52.600735
6974,52.600735
6975,52.600735
6976,52.429794
6977,52.429794
6978,52.234432
6979,52.234432
6980,51.990234
6981,51.990234
6982,51.990234
6983,51.697193
6984,51.697193
6985,51.306473
6986,51.306473
6987,51.306473
6988,50.84249
6989,50.84249
6990,50.28083
6991,50.28083
6992,49.645912
6993,49.645912
6994,49.645912
6995,48.93773
6996,48.93773
6997,48.13187
6998,48.13187
6999,48.13187
7000,47.326008
7001,47.326008
7002,46.495728
7003,46.495728
7004,45.641026
7005,45.641026
7006,45.641026
7007,44.810745
7008,44.810745
7009,43.980465
7010,43.980465
7011,43.980465
7012,43.125763
7013,43.125763
7014,42.271065
7015,42.271065
7016,41.465202
7017,41.465202
7018,41.465202
7019,40.68376
7020,40.68376
7021,39.92674
7022,39.92674
7023,39.92674
7024,39.19414
7025,39.19414
7026,38.46154
7027,38.46154
7028,37.6801
7029,37.6801
7030,37.6801
7031,36.89866
7032,36.89866
7033,36.092796
7034,36.092796
7035,36.092796
7036,35.238094
7037,35.238094
7038,34.358974
7039,34.358974
7040,33.357754
7041,33.357754
7042,33.357754
7043,32.234432
7044,32.234432
7045,31.062271
7046,31.062271
7047,31.062271
7048,29.86569
7049,29.86569
7050,28.717949
7051,28.717949
7052,27.741148
7053,27.741148
7054,27.741148
7055,26.984127
7056,26.984127
7057,26.520147
7058,26.520147
7059,26.520147
7060,26.422466
7061,26.422466
7062,26.642246
7063,26.642246
7064,27.106228
7065,27.106228
7066,27.106228
7067,27.667889
7068,27.667889
7069,28.22955
7070,28.22955
7071,28.22955
7072,28.66911
7073,28.66911
7074,28.98657
7075,28.98657
7076,29.23077
7077,29.23077
7078,29.23077
7079,29.37729
7080,29.37729
7081,29.47497
7082,29.47497
7083,29.47497
7084,29.57265
7085,29.57265
7086,29.67033
7087,29.67033
7088,29.81685
7089,29.81685
7090,29.81685
7091,30.01221
7092,30.01221
7093,30.207571
7094,30.207571
7095,30.207571
7096,30.50061
7097,30.50061
7098,31.037851
7099,31.037851
7100,32.014652
7101,32.014652
7102,32.014652
7103,33.431015
7104,33.431015
7105,35.433456
7106,35.433456
7107,35.433456
7108,38.33944
7109,38.33944
7110,42.197803
7111,42.197803
7112,46.78877
7113,46.78877
7114,46.78877
7115,51.84371
7116,51.84371
7117,57.16728
7118,57.16728
7119,57.16728
7120,62.319904
7121,62.319904
7122,67.130646
7123,67.130646
7124,71.40415
7125,71.40415
7126,71.40415
7127,74.82295
7128,74.82295
7129,77.3138
7130,77.3138
7131,77.3138
7132,79.04762
7133,79.04762
7134,80.170944
7135,80.170944
7136,80.610504
7137,80.610504
7138,80.610504
7139,80.512825
7140,80.512825
7141,80.073265
7142,80.073265
7143,80.073265
7144,79.3895
7145,79.3895
7146,78.51038
7147,78.51038
7148,77.53358
7149,77.53358
7150,77.53358
7151,76.53236
7152,76.53236
7153,75.531136
7154,75.531136
7155,75.531136
7156,74.57876
7157,74.57876
7158,73.69964
7159,73.69964
7160,72.9182
7161,72.9182
7162,72.9182
7163,72.210014
7164,72.210014
7165,71.64835
7166,71.64835
7167,71.64835
7168,71.233215
7169,71.233215
7170,70.91575
7171,70.91575
7172,70.64713
7173,70.64713
7174,70.64713
7175,70.47619
7176,70.47619
7177,70.30525
7178,70.30525
7179,70.30525
7180,70.15873
7181,70.15873
7182,69.98779
7183,69.98779
7184,69.69475
7185,69.69475
7186,69.69475
7187,69.20635
7188,69.20635
7189,68.57143
7190,68.57143
7191,68.57143
7192,66.93529
7193,66.93529
7194,65.93407
7195,65.93407
7196,64.85959
7197,64.85959
7198,64.85959
7199,63.736263
7200,63.736263
7201,62.612946
7202,62.612946
7203,62.612946
7204,61.489624
7205,61.489624
7206,60.39072
7207,60.39072
7208,59.3895
7209,59.3895
7210,59.3895
7211,58.46154
7212,58.46154
7213,57.655678
7214,57.655678
7215,57.655678
7216,56.996338
7217,56.996338
7218,56.434677
7219,56.434677
7220,55.995117
7221,55.995117
7222,55.995117
7223,55.677658
7224,55.677658
7225,55.433456
7226,55.433456
7227,55.433456
7228,55.213676
7229,55.213676
7230,55.018314
7231,55.018314
7232,54.798534
7233,54.798534
7234,54.798534
7235,54.529915
7236,54.529915
7237,54.236874
7238,54.236874
7239,54.236874
7240,53.846153
7241,53.846153
7242,53.333336
7243,53.333336
7244,52.72283
7245,52.72283
7246,52.72283
7247,52.06349
7248,52.06349
7249,51.33089
7250,51.33089
7251,51.33089
7252,50.598293
7253,50.598293
7254,49.865692
7255,49.865692
7256,49.13309
7257,49.13309
7258,49.13309
7259,48.47375
7260,48.47375
7261,47.863247
7262,47.863247
7263,47.863247
7264,47.22833
7265,47.22833
7266,46.593407
7267,46.593407
7268,45.95849
7269,45.95849
7270,45.95849
7271,45.274727
7272,45.274727
7273,44.542126
7274,44.542126
7275,44.542126
7276,43.809525
7277,43.809525
7278,43.076923
7279,43.076923
7280,42.344322
7281,42.344322
7282,42.344322
7283,41.61172
7284,41.61172
7285,40.87912
7286,40.87912
7287,40.87912
7288,40.146523
7289,40.146523
7290,39.43834
7291,39.43834
7292,38.779
7293,38.779
7294,38.779
7295,38.144077
7296,38.144077
7297,37.533577
7298,37.533577
7299,37.533577
7300,37.020756
7301,37.020756
7302,36.581196
7303,36.581196
7304,36.214897
7305,36.214897
7306,36.214897
7307,35.970695
7308,35.970695
7309,35.824177
7310,35.824177
7311,35.824177
7312,35.750916
7313,35.750916
7314,35.750916
7315,35.750916
7316,35.873016
7317,35.873016
7318,35.873016
7319,36.043957
7320,36.043957
7321,36.190475
7322,36.190475
7323,36.190475
7324,36.336998
7325,36.336998
7326,36.410255
7327,36.410255
7328,36.361416
7329,36.361416
7330,36.361416
7331,36.214897
7332,36.214897
7333,35.995117
7334,35.995117
7335,35.995117
7336,35.677658
7337,35.677658
7338,35.311356
7339,35.311356
7340,34.871796
7341,34.871796
7342,34.871796
7343,34.383396
7344,34.383396
7345,33.772896
7346,33.772896
7347,33.772896
7348,32.94261
7349,32.94261
7350,31.916973
7351,31.916973
7352,30.793652
7353,30.793652
7354,30.793652
7355,29.67033
7356,29.67033
7357,28.86447
7358,28.86447
7359,28.86447
7360,28.47375
7361,28.47375
7362,28.66911
7363,28.66911
7364,29.768011
7365,29.768011
7366,29.768011
7367,31.990232
7368,31.990232
7369,35.115997
7370,35.115997
7371,35.115997
7372,39.0232
7373,39.0232
7374,43.760685
7375,43.760685
7376,49.035408
7377,49.035408
7378,49.035408
7379,54.578754
7380,54.578754
7381,60.1221
7382,60.1221
7383,60.1221
7384,65.32356
7385,65.32356
7386,69.86569
7387,69.86569
7388,73.72405
7389,73.72405
7390,73.72405
7391,76.87424
7392,76.87424
7393,79.1453
7394,79.1453
7395,79.1453
7396,80.56166
7397,80.56166
7398,81.3431
7399,81.3431
7400,81.709404
7401,81.709404
7402,81.709404
7403,81.68498
7404,81.68498
7405,81.44078
7406,81.44078
7407,81.44078
7408,81.050064
7409,81.050064
7410,80.63492
7411,80.63492
7412,80.2442
7413,80.2442
7414,80.2442
7415,79.90232
7416,79.90232
7417,79.60928
7418,79.60928
7419,79.60928
7420,79.3895
7421,79.3895
7422,
7423,
7424,79.24298
7425,79.24298
7426,79.24298
7427,79.07204
7428,79.07204
7429,78.87668
7430,78.87668
7431,78.87668
7432,78.6569
7433,78.6569
7434,78.36386
7435,78.36386
7436,77.94872
7437,77.94872
7438,77.94872
7439,77.411476
7440,77.411476
7441,76.77656
7442,76.77656
7443,76.77656
7444,75.94627
7445,75.94627
7446,74.89622
7447,74.89622
7448,73.72405
7449,73.72405
7450,73.72405
7451,72.40537
7452,72.40537
7453,70.91575
7454,70.91575
7455,70.91575
7456,69.30403
7457,69.30403
7458,67.64347
7459,67.64347
7460,66.007324
7461,66.007324
7462,66.007324
7463,64.42003
7464,64.42003
7465,62.881565
7466,62.881565
7467,62.881565
7468,61.44078
7469,61.44078
7470,60.097683
7471,60.097683
7472,58.94994
7473,58.94994
7474,58.94994
7475,57.99756
7476,57.99756
7477,57.216118
7478,57.216118
7479,57.216118
7480,56.532356
7481,56.532356
7482,55.995117
7483,55.995117
7484,55.555557
7485,55.555557
7486,55.555557
7487,55.189255
7488,55.189255
7489,54.871796
7490,54.871796
7491,54.871796
7492,54.578754
7493,54.578754
7494,54.236874
7495,54.236874
7496,53.821735
7497,53.821735
7498,53.821735
7499,53.333336
7500,53.333336
7501,52.796093
7502,52.796093
7503,52.796093
7504,52.185593
7505,52.185593
7506,51.50183
7507,51.50183
7508,50.76923
7509,50.76923
7510,50.76923
7511,49.98779
7512,49.98779
7513,49.15751
7514,49.15751
7515,49.15751
7516,48.30281
7517,48.30281
7518,47.423687
7519,47.423687
7520,46.56899
7521,46.56899
7522,46.56899
7523,45.763126
7524,45.763126
7525,44.957264
7526,44.957264
7527,44.957264
7528,44.200245
7529,44.200245
7530,43.443226
7531,43.443226
7532,42.686203
7533,42.686203
7534,42.686203
7535,41.929184
7536,41.929184
7537,41.221
7538,41.221
7539,41.221
7540,40.51282
7541,40.51282
7542,39.80464
7543,39.80464
7544,39.09646
7545,39.09646
7546,39.09646
7547,38.46154
7548,38.46154
7549,37.85104
7550,37.85104
7551,37.85104
7552,37.24054
7553,37.24054
7554,36.67888
7555,36.67888
7556,36.166058
7557,36.166058
7558,36.166058
7559,35.702076
7560,35.702076
7561,35.213676
7562,35.213676
7563,35.213676
7564,34.749695
7565,34.749695
7566,34.358974
7567,34.358974
7568,33.992676
7569,33.992676
7570,33.992676
7571,33.601955
7572,33.601955
7573,33.211235
7574,33.211235
7575,33.211235
7576,32.527473
7577,32.527473
7578,32.210014
7579,32.210014
7580,31.916973
7581,31.916973
7582,31.916973
7583,31.623932
7584,31.623932
7585,31.330893
7586,31.330893
7587,31.330893
7588,31.037851
7589,31.037851
7590,30.769232
7591,30.769232
7592,30.50061
7593,30.50061
7594,30.50061
7595,30.207571
7596,30.207571
7597,29.84127
7598,29.84127
7599,29.84127
7600,29.40171
7601,29.40171
7602,28.962149
7603,28.962149
7604,28.547009
7605,28.547009
7606,28.547009
7607,28.351648
7608,28.351648
7609,28.44933
7610,28.44933
7611,28.44933
7612,28.98657
7613,28.98657
7614,30.28083
7615,30.28083
7616,32.55189
7617,32.55189
7618,32.55189
7619,35.702076
7620,35.702076
7621,39.53602
7622,39.53602
7623,39.53602
7624,44.078144
7625,44.078144
7626,48.93773
7627,48.93773
7628,53.821735
7629,53.821735
7630,53.821735
7631,58.46154
7632,58.46154
7633,62.515263
7634,62.515263
7635,62.515263
7636,65.71429
7637,65.71429
7638,68.13187
7639,68.13187
7640,69.890114
7641,69.890114
7642,69.890114
7643,70.96459
7644,70.96459
7645,71.452995
7646,71.452995
7647,71.452995
7648,71.575096
7649,71.575096
7650,71.47741
7651,71.47741
7652,71.18437
7653,71.18437
7654,71.18437
7655,70.793655
7656,70.793655
7657,70.37851
7658,70.37851
7659,70.37851
7660,69.98779
7661,69.98779
7662,69.64591
7663,69.64591
7664,69.32845
7665,69.32845
7666,69.32845
7667,69.08425
7668,69.08425
7669,68.88889
7670,68.88889
7671,68.88889
7672,68.69353
7673,68.69353
7674,68.47375
7675,68.47375
7676,68.229546
7677,68.229546
7678,68.229546
7679,67.98535
7680,67.98535
7681,67.69231
7682,67.69231
7683,67.69231
7684,67.30159
7685,67.30159
7686,66.83761
7687,66.83761
7688,66.30037
7689,66.30037
7690,66.30037
7691,65.61661
7692,65.61661
7693,64.76191
7694,64.76191
7695,64.76191
7696,63.785107
7697,63.785107
7698,62.735043
7699,62.735043
7700,61.56288
7701,61.56288
7702,61.56288
7703,60.29304
7704,60.29304
7705,58.97436
7706,58.97436
7707,58.97436
7708,57.63126
7709,57.63126
7710,56.28816
7711,56.28816
7712,55.067158
7713,55.067158
7714,55.067158
7715,53.968254
7716,53.968254
7717,52.942616
7718,52.942616
7719,52.942616
7720,52.06349
7721,52.06349
7722,51.355312
7723,51.355312
7724,50.76923
7725,50.76923
7726,50.76923
7727,50.28083
7728,50.28083
7729,49.89011
7730,49.89011
7731,49.89011
7732,49.57265
7733,49.57265
7734,49.32845
7735,49.32845
7736,49.10867
7737,49.10867
7738,49.10867
7739,48.88889
7740,48.88889
7741,48.66911
7742,48.66911
7743,48.66911
7744,48.44933
7745,48.44933
7746,48.15629
7747,48.15629
7748,47.814407
7749,47.814407
7750,47.814407
7751,47.423687
7752,47.423687
7753,46.984127
7754,46.984127
7755,46.984127
7756,46.495728
7757,46.495728
7758,45.95849
7759,45.95849
7760,45.372406
7761,45.372406
7762,45.372406
7763,44.737484
7764,44.737484
7765,44.102566
7766,44.102566
7767,44.102566
7768,43.467644
7769,43.467644
7770,42.808304
7771,42.808304
7772,42.17338
7773,42.17338
7774,42.17338
7775,41.538464
7776,41.538464
7777,40.90354
7778,40.90354
7779,40.90354
7780,40.29304
7781,40.29304
7782,39.70696
7783,39.70696
7784,39.16972
7785,39.16972
7786,39.16972
7787,38.6569
7788,38.6569
7789,38.144077
7790,38.144077
7791,38.144077
7792,37.63126
7793,37.63126
7794,37.191696
7795,37.191696
7796,36.752136
7797,36.752136
7798,36.752136
7799,36.312576
7800,36.312576
7801,35.897438
7802,35.897438
7803,35.897438
7804,35.482296
7805,35.482296
7806,
7807,
7808,35.091576
7809,35.091576
7810,35.091576
7811,34.725277
7812,34.725277
7813,34.358974
7814,34.358974
7815,34.358974
7816,34.017094
7817,34.017094
7818,33.699635
7819,33.699635
7820,33.382175
7821,33.382175
7822,33.382175
7823,33.064713
7824,33.064713
7825,32.747253
7826,32.747253
7827,32.747253
7828,32.478634
7829,32.478634
7830,32.210014
7831,32.210014
7832,31.990232
7833,31.990232
7834,31.990232
7835,31.746033
7836,31.746033
7837,31.501833
7838,31.501833
7839,31.501833
7840,31.306473
7841,31.306473
7842,31.159952
7843,31.159952
7844,31.013432
7845,31.013432
7846,31.013432
7847,30.86691
7848,30.86691
7849,30.72039
7850,30.72039
7851,30.72039
7852,30.549452
7853,30.549452
7854,30.354092
7855,30.354092
7856,30.08547
7857,30.08547
7858,30.08547
7859,29.74359
7860,29.74359
7861,29.37729
7862,29.37729
7863,29.37729
7864,29.03541
7865,29.03541
7866,28.79121
7867,28.79121
7868,28.91331
7869,28.91331
7870,28.91331
7871,29.42613
7872,29.42613
7873,30.50061
7874,30.50061
7875,30.50061
7876,32.429794
7877,32.429794
7878,35.311356
7879,35.311356
7880,38.97436
7881,38.97436
7882,38.97436
7883,43.150185
7884,43.150185
7885,47.71673
7886,47.71673
7887,47.71673
7888,52.210014
7889,52.210014
7890,56.434677
7891,56.434677
7892,60.21978
7893,60.21978
7894,60.21978
7895,63.223446
7896,63.223446
7897,65.372406
7898,65.372406
7899,65.372406
7900,66.83761
7901,66.83761
7902,67.74115
7903,67.74115
7904,68.05861
7905,68.05861
7906,68.05861
7907,67.98535
7908,67.98535
7909,67.66789
7910,67.66789
7911,67.66789
7912,67.25275
7913,67.25275
7914,66.76435
7915,66.76435
7916,66.30037
7917,66.30037
7918,66.30037
7919,65.88522
7920,65.88522
7921,65.51893
7922,65.51893
7923,65.51893
7924,65.250305
7925,65.250305
7926,65.030525
7927,65.030525
7928,64.884
7929,64.884
7930,64.884
7931,64.73749
7932,64.73749
7933,64.590965
7934,64.590965
7935,64.590965
7936,64.39561
7937,64.39561
7938,64.151405
7939,64.151405
7940,63.907204
7941,63.907204
7942,63.907204
7943,63.565323
7944,63.565323
7945,63.101345
7946,63.101345
7947,63.101345
7948,62.539684
7949,62.539684
7950,61.904762
7951,61.904762
7952,61.147743
7953,61.147743
7954,61.147743
7955,60.21978
7956,60.21978
7957,59.16972
7958,59.16972
7959,59.16972
7960,58.0464
7961,58.0464
7962,56.84982
7963,56.84982
7964,55.604397
7965,55.604397
7966,55.604397
7967,54.358974
7968,54.358974
7969,53.137974
7970,53.137974
7971,53.137974
7972,52.014652
7973,52.014652
7974,51.01343
7975,51.01343
7976,50.18315
7977,50.18315
7978,50.18315
7979,49.47497
7980,49.47497
7981,48.66911
7982,48.66911
7983,48.66911
7984,48.35165
7985,48.35165
7986,48.15629
7987,48.15629
7988,48.034187
7989,48.034187
7990,48.034187
7991,48.034187
7992,48.034187
7993,48.05861
7994,48.05861
7995,48.05861
7996,47.985348
7997,47.985348
7998,47.88767
7999,47.88767
8000,47.71673
8001,47.71673
8002,47.71673
8003,47.35043
8004,47.35043
8005,47.00855
8006,47.00855
8007,47.00855
8008,46.642246
8009,46.642246
8010,46.251526
8011,46.251526
8012,45.56777
8013,45.56777
8014,45.56777
8015,45.054947
8016,45.054947
8017,44.517704
8018,44.517704
8019,44.517704
8020,43.687424
8021,43.687424
8022,43.101345
8023,43.101345
8024,42.515263
8025,42.515263
8026,42.515263
8027,41.929184
8028,41.929184
8029,41.3431
8030,41.3431
8031,41.3431
8032,40.78144
8033,40.78144
8034,40.2442
8035,40.2442
8036,39.16972
8037,39.16972
8038,39.16972
8039,38.68132
8040,38.68132
8041,38.21734
8042,38.21734
8043,38.21734
8044,37.753357
8045,37.753357
8046,37.313797
8047,37.313797
8048,36.9475
8049,36.9475
8050,36.9475
8051,36.630035
8052,36.630035
8053,36.361416
8054,36.361416
8055,36.361416
8056,36.214897
8057,36.214897
8058,36.117218
8059,36.117218
8060,36.043957
8061,36.043957
8062,36.043957
8063,35.970695
8064,35.970695
8065,35.897438
8066,35.897438
8067,35.897438
8068,35.775337
8069,35.775337
8070,35.653236
8071,35.653236
8072,35.506718
8073,35.506718
8074,35.506718
8075,35.335777
8076,35.335777
8077,35.140415
8078,35.140415
8079,35.140415
8080,34.920635
8081,34.920635
8082,34.676434
8083,34.676434
8084,34.407814
8085,34.407814
8086,34.407814
8087,34.090355
8088,34.090355
8089,33.675213
8090,33.675213
8091,33.675213
8092,33.284492
8093,33.284492
8094,32.94261
8095,32.94261
8096,32.820515
8097,32.820515
8098,32.820515
8099,32.967033
8100,32.967033
8101,33.553116
8102,33.553116
8103,33.553116
8104,34.871796
8105,34.871796
8106,37.045177
8107,37.045177
8108,39.95116
8109,39.95116
8110,39.95116
8111,43.369965
8112,43.369965
8113,47.27717
8114,47.27717
8115,47.27717
8116,51.306473
8117,51.306473
8118,55.238094
8119,55.238094
8120,58.82784
8121,58.82784
8122,58.82784
8123,61.807083
8124,61.807083
8125,64.00488
8126,64.00488
8127,64.00488
8128,65.567764
8129,65.567764
8130,66.61783
8131,66.61783
8132,67.08181
8133,67.08181
8134,67.08181
8135,67.08181
8136,67.08181
8137,66.73993
8138,66.73993
8139,66.73993
8140,66.227104
8141,66.227104
8142,65.64103
8143,65.64103
8144,65.05495
8145,65.05495
8146,65.05495
8147,64.493286
8148,64.493286
8149,64.029305
8150,64.029305
8151,64.029305
8152,63.638584
8153,63.638584
8154,63.345543
8155,63.345543
8156,63.125763
8157,63.125763
8158,63.125763
8159,62.954823
8160,62.954823
8161,62.783882
8162,62.783882
8163,62.783882
8164,62.612946
8165,62.612946
8166,62.39316
8167,62.39316
8168,62.124542
8169,62.124542
8170,62.124542
8171,61.758244
8172,61.758244
8173,61.269844
8174,61.269844
8175,61.269844
8176,60.65934
8177,60.65934
8178,59.975582
8179,59.975582
8180,59.16972
8181,59.16972
8182,59.16972
8183,58.21734
8184,58.21734
8185,57.16728
8186,57.16728
8187,57.16728
8188,56.06838
8189,56.06838
8190,54.896217
8191,54.896217
8192,53.772896
8193,53.772896
8194,53.772896
8195,52.72283
8196,52.72283
8197,51.746033
8198,51.746033
8199,51.746033
8200,50.84249
8201,50.84249
8202,50.06105
8203,50.06105
8204,49.42613
8205,49.42613
8206,49.42613
8207,48.91331
8208,48.91331
8209,48.57143
8210,48.57143
8211,48.57143
8212,48.35165
8213,48.35165
8214,48.205128
8215,48.205128
8216,48.13187
8217,48.13187
8218,48.13187
8219,48.10745
8220,48.10745
8221,48.034187
8222,48.034187
8223,48.034187
8224,47.96093
8225,47.96093
8226,47.863247
8227,47.863247
8228,47.71673
8229,47.71673
8230,47.71673
8231,47.49695
8232,47.49695
8233,47.22833
8234,47.22833
8235,47.22833
8236,46.886448
8237,46.886448
8238,46.471306
8239,46.471306
8240,46.031746
8241,46.031746
8242,46.031746
8243,45.592186
8244,45.592186
8245,45.128204
8246,45.128204
8247,45.128204
8248,44.615387
8249,44.615387
8250,44.126984
8251,44.126984
8252,43.638584
8253,43.638584
8254,43.638584
8255,43.150185
8256,43.150185
8257,42.661785
8258,42.661785
8259,42.661785
8260,42.17338
8261,42.17338
8262,41.684982
8263,41.684982
8264,41.221
8265,41.221
8266,41.221
8267,
8268,
8269,40.78144
8270,40.78144
8271,40.78144
8272,40.366302
8273,40.366302
8274,39.975582
8275,39.975582
8276,39.58486
8277,39.58486
8278,39.58486
8279,39.21856
8280,39.21856
8281,38.87668
8282,38.87668
8283,38.87668
8284,38.55922
8285,38.55922
8286,38.2906
8287,38.2906
8288,38.02198
8289,38.02198
8290,38.02198
8291,37.77778
8292,37.77778
8293,37.558
8294,37.558
8295,37.558
8296,37.362637
8297,37.362637
8298,37.191696
8299,37.191696
8300,37.020756
8301,37.020756
8302,37.020756
8303,36.825397
8304,36.825397
8305,36.630035
8306,36.630035
8307,36.630035
8308,36.434677
8309,36.434677
8310,36.214897
8311,36.214897
8312,35.970695
8313,35.970695
8314,35.970695
8315,35.702076
8316,35.702076
8317,35.409035
8318,35.409035
8319,35.409035
8320,35.091576
8321,35.091576
8322,34.774117
8323,34.774117
8324,34.481075
8325,34.481075
8326,34.481075
8327,34.334557
8328,34.334557
8329,34.554337
8330,34.554337
8331,34.554337
8332,35.189255
8333,35.189255
8334,36.312576
8335,36.312576
8336,38.144077
8337,38.144077
8338,38.144077
8339,40.708183
8340,40.708183
8341,43.833946
8342,43.833946
8343,43.833946
8344,47.27717
8345,47.27717
8346,50.89133
8347,50.89133
8348,54.358974
8349,54.358974
8350,54.358974
8351,57.558
8352,57.558
8353,60.39072
8354,60.39072
8355,60.39072
8356,62.637363
